[  26.81787109   27.56005859   25.66113281   22.53955078   19.2578125
   17.10595703   16.04785156   14.85302734   13.56738281   12.77099609
   11.85351562   11.21582031   10.34228516   11.24560547   13.18652344
   15.73193359   18.73681641   20.78613281   22.27441406   21.14892578
   20.00146484   18.48876953   14.69482422    9.58984375    3.38818359
   -3.16699219  -11.21435547  -20.94628906  -30.42285156  -38.73095703
  -46.04931641  -50.10449219  -52.33300781  -51.38867188  -46.44824219
  -38.75830078  -27.34863281  -11.77148438   11.06494141   39.07324219
   68.42822266   96.00878906  113.94726562  114.85400391   96.44384766
   62.16992188   18.38964844  -26.60644531  -60.79248047  -78.26757812
  -79.68017578  -70.20703125  -54.74414062  -38.41308594  -26.05712891
  -17.07714844  -10.92236328   -4.83349609    2.11035156   10.24609375
   18.24560547   24.828125     29.87890625   32.98046875   34.05664062
   32.69970703   30.22802734   24.93847656   17.78125       8.71289062
   -1.72167969  -11.75488281  -21.54882812  -29.54345703  -35.39306641
  -37.65234375  -36.50976562  -32.79589844  -26.49707031  -17.26757812
   -7.07617188    3.71875      14.97070312   26.4296875    36.20898438
   43.59228516   49.77783203   53.18994141   53.62011719   50.11328125
   45.01904297   38.33691406   29.99560547   20.484375     11.125
    2.47460938   -6.40673828  -13.53417969  -19.29443359  -23.49853516
  -26.92578125  -28.64306641  -27.9921875   -27.89208984  -27.13037109
  -25.45507812  -23.06103516  -20.35449219  -18.0625      -14.18652344
  -10.28320312   -6.07324219   -1.54638672    2.8125        6.59179688
    8.09716797    8.35205078    8.01220703    7.90625       7.46386719
    7.12744141    8.24804688   10.39355469   12.34228516   12.22167969
   11.67919922   10.85400391    9.37060547    8.07080078    6.08398438
    4.56787109    1.71142578   -0.64013672   -3.15673828   -6.39599609
   -8.64794922  -10.26708984  -10.37695312  -11.22998047  -11.73193359
  -12.15332031  -13.26513672  -14.56835938  -15.21777344  -14.90185547
  -14.45410156  -13.86083984  -12.77587891   -9.7734375    -5.73583984
   -0.9453125     5.45898438   13.10449219   21.92529297   28.87548828
   33.77880859   37.234375     38.19970703   37.57275391   34.51953125
   30.04638672   24.68164062   17.41308594    8.33984375   -2.37255859
  -13.64794922  -24.7421875   -35.99560547  -45.35644531  -51.65576172
  -55.38183594  -56.30029297  -53.77636719  -47.46337891  -39.15966797
  -29.94091797  -19.48291016   -8.48291016    3.58447266   18.60595703]
[ -7.60986328e+00  -6.95068359e+00  -6.24365234e+00  -5.26562500e+00
  -2.68066406e+00   1.67089844e+00   5.73583984e+00   9.86767578e+00
   1.58500977e+01   2.16098633e+01   2.60703125e+01   2.92402344e+01
   3.21005859e+01   3.32358398e+01   3.18369141e+01   3.00219727e+01
   2.66401367e+01   2.13388672e+01   1.36323242e+01   4.84521484e+00
  -4.73583984e+00  -1.52929688e+01  -2.50659180e+01  -3.29658203e+01
  -3.88691406e+01  -4.33378906e+01  -4.58276367e+01  -4.59721680e+01
  -4.46704102e+01  -4.20571289e+01  -3.64770508e+01  -2.82885742e+01
  -1.81196289e+01  -7.50146484e+00   5.66601562e+00   2.19902344e+01
   4.08105469e+01   6.28125000e+01   8.51450195e+01   1.02848633e+02
   1.07913086e+02   9.69912109e+01   6.92792969e+01   2.63994141e+01
  -2.50180664e+01  -7.16601562e+01  -1.02453125e+02  -1.14507324e+02
  -1.08414551e+02  -8.86499023e+01  -6.09497070e+01  -3.47075195e+01
  -1.44252930e+01  -9.22851562e-01   6.21435547e+00   9.24951172e+00
   1.18256836e+01   1.46347656e+01   1.65981445e+01   1.77851562e+01
   1.75644531e+01   1.69589844e+01   1.38823242e+01   9.50878906e+00
   4.69091797e+00   4.94628906e-01  -2.52343750e+00  -5.21337891e+00
  -7.09570312e+00  -7.36425781e+00  -5.92675781e+00  -3.83789062e+00
  -4.81445312e-01   3.88476562e+00   9.74707031e+00   1.56645508e+01
   2.13173828e+01   2.70039062e+01   3.15522461e+01   3.55410156e+01
   3.79086914e+01   3.98100586e+01   4.14848633e+01   4.19101562e+01
   4.24121094e+01   4.18291016e+01   4.01933594e+01   3.68642578e+01
   3.15615234e+01   2.45361328e+01   1.48662109e+01   4.81054688e+00
  -4.62304688e+00  -1.41953125e+01  -2.36791992e+01  -3.09624023e+01
  -3.47329102e+01  -3.73242188e+01  -3.97495117e+01  -4.07578125e+01
  -3.97812500e+01  -3.85708008e+01  -3.83671875e+01  -3.71044922e+01
  -3.36035156e+01  -2.87583008e+01  -2.35478516e+01  -1.80146484e+01
  -1.14165039e+01  -5.54638672e+00  -1.99902344e+00  -1.66015625e-02
   1.21484375e+00   2.34521484e+00   1.73095703e+00   2.17285156e-01
  -1.07421875e-02   2.26074219e-01   1.45507812e-01  -1.14843750e+00
  -5.18066406e-01   2.15039062e+00   4.02197266e+00   5.73291016e+00
   7.91552734e+00   1.16103516e+01   1.42587891e+01   1.46240234e+01
   1.42656250e+01   1.37958984e+01   1.31440430e+01   1.10556641e+01
   7.74804688e+00   4.29003906e+00   2.13720703e+00  -2.54394531e-01
  -3.49462891e+00  -5.89208984e+00  -7.28515625e+00  -6.58984375e+00
  -6.66748047e+00  -6.56787109e+00  -6.54199219e+00  -7.34570312e+00
  -8.52734375e+00  -1.11250000e+01  -1.18608398e+01  -1.10327148e+01
  -8.81738281e+00  -6.03759766e+00  -1.51171875e+00   4.51416016e+00
   9.44042969e+00   1.32353516e+01   1.80131836e+01   2.41147461e+01
   2.82465820e+01   3.07900391e+01   3.18247070e+01   3.15004883e+01
   2.75000000e+01   2.03007812e+01   1.36372070e+01   5.97558594e+00
  -2.28369141e+00  -1.09130859e+01  -1.79467773e+01  -2.40747070e+01
  -3.13950195e+01  -3.77934570e+01  -4.15488281e+01  -4.25766602e+01
  -4.21977539e+01  -3.91308594e+01  -3.40268555e+01  -2.70322266e+01
  -1.91904297e+01  -1.10732422e+01  -2.02197266e+00   9.02490234e+00]
[  -5.82275391   -7.34423828   -7.90429688   -7.26171875   -5.56884766
   -3.19921875    0.67724609    5.67773438   10.60253906   16.0859375
   22.29199219   27.81103516   32.34326172   36.01660156   37.82617188
   35.98779297   30.78515625   23.56591797   14.95166016    4.7890625
   -6.51123047  -16.38134766  -24.78320312  -31.78369141  -38.26660156
  -43.54199219  -46.05810547  -46.39306641  -45.43945312  -43.44189453
  -38.67285156  -31.15087891  -22.10058594  -12.79785156   -0.61914062
   16.921875     39.05712891   64.43945312   89.10546875  109.64160156
  118.64550781  109.68212891   82.12304688   39.30322266   -9.76708984
  -56.62451172  -90.39550781 -105.11767578 -102.23193359  -86.57666016
  -65.56884766  -44.01220703  -26.60449219  -15.77734375   -9.87109375
   -5.88525391   -0.93408203    5.16455078   10.00439453   14.25488281
   17.62939453   18.92724609   17.22265625   13.27148438    8.85546875
    4.40234375    0.2734375    -3.06884766   -4.30029297   -3.890625
   -2.13964844    0.390625      3.14013672    6.54150391    9.58935547
   12.14892578   14.50585938   16.84130859   20.21386719   24.67089844
   29.93212891   35.1640625    40.63476562   44.81445312   47.15917969
   47.1171875    44.14892578   39.72265625   34.04199219   27.59765625
   19.18115234    9.55224609    0.66992188   -8.60888672  -19.43408203
  -28.91796875  -35.66455078  -40.58056641  -44.68359375  -46.70410156
  -45.66455078  -43.93164062  -41.46289062  -37.33105469  -31.83984375
  -26.29394531  -21.76220703  -17.32568359  -13.02441406   -9.94140625
   -8.17333984   -5.96923828   -2.33447266    0.57373047    2.453125
    3.69140625    5.33154297    5.84814453    4.94140625    5.06152344
    5.57568359    6.03955078    5.68896484    5.51171875    5.87109375
    4.53515625    2.66015625    1.75195312    2.0859375     2.45898438
    2.29248047    3.90429688    6.49267578    8.07666016    7.73974609
    6.58789062    5.37890625    3.09472656   -0.85253906   -4.03417969
   -4.92578125   -4.54931641   -3.80566406   -2.60498047   -0.125
    1.4765625     1.17333984    0.63330078    0.19824219   -0.72265625
   -1.796875     -2.10449219   -2.09521484   -3.04589844   -4.84277344
   -6.18652344   -7.17333984   -7.80371094   -6.99365234   -6.09033203
   -4.91601562   -4.25292969   -3.83251953   -3.88525391   -4.80761719
   -3.59179688   -1.45068359    2.03955078    6.04931641   10.52148438
   16.32080078   21.43115234   27.33398438   32.30664062   36.31201172
   39.24365234   39.10253906   35.58789062   28.55078125   19.40917969]
[ -9.72802734e+00  -6.31152344e+00  -2.38867188e+00   1.02636719e+00
   3.94873047e+00   6.65722656e+00   8.95166016e+00   1.13237305e+01
   1.48803711e+01   1.83076172e+01   2.20078125e+01   2.58051758e+01
   2.98530273e+01   3.19624023e+01   3.07065430e+01   2.82788086e+01
   2.45517578e+01   1.94091797e+01   1.22226562e+01   5.27099609e+00
  -1.64013672e+00  -8.94384766e+00  -1.65366211e+01  -2.42363281e+01
  -3.13251953e+01  -3.84746094e+01  -4.34370117e+01  -4.73452148e+01
  -4.88798828e+01  -4.70898438e+01  -4.22133789e+01  -3.45805664e+01
  -2.53002930e+01  -1.32202148e+01   4.47265625e-01   1.64565430e+01
   3.75092773e+01   6.29453125e+01   8.83232422e+01   1.06687012e+02
   1.12734375e+02   1.02403320e+02   7.33105469e+01   2.83754883e+01
  -2.39887695e+01  -6.98759766e+01  -9.97514648e+01  -1.10967285e+02
  -1.05431641e+02  -8.69755859e+01  -6.14956055e+01  -3.78652344e+01
  -2.08979492e+01  -1.00678711e+01  -3.44433594e+00  -2.03125000e-01
   1.80517578e+00   4.42919922e+00   8.65380859e+00   1.23305664e+01
   1.50048828e+01   1.75361328e+01   1.94921875e+01   2.03872070e+01
   1.93715820e+01   1.83066406e+01   1.71166992e+01   1.46582031e+01
   1.11933594e+01   7.74169922e+00   4.37500000e+00   4.60449219e-01
  -3.91259766e+00  -5.74462891e+00  -5.55175781e+00  -4.45410156e+00
  -1.94677734e+00   2.76513672e+00   1.05327148e+01   1.86250000e+01
   2.67641602e+01   3.48461914e+01   4.24101562e+01   4.83720703e+01
   5.18442383e+01   5.43227539e+01   5.50253906e+01   5.41162109e+01
   5.07573242e+01   4.46069336e+01   3.51035156e+01   2.17919922e+01
   6.44384766e+00  -1.06347656e+01  -2.68427734e+01  -4.10253906e+01
  -5.11933594e+01  -5.71782227e+01  -5.95625000e+01  -5.85307617e+01
  -5.56684570e+01  -5.09648438e+01  -4.59995117e+01  -4.07705078e+01
  -3.49970703e+01  -2.87236328e+01  -2.30761719e+01  -1.77202148e+01
  -1.19814453e+01  -7.61132812e+00  -4.16113281e+00  -2.03515625e+00
   8.84277344e-01   3.33886719e+00   4.88134766e+00   6.44677734e+00
   6.85693359e+00   7.64404297e+00   7.58300781e+00   6.44287109e+00
   4.82617188e+00   4.08740234e+00   4.40429688e+00   3.87744141e+00
   2.36914062e+00   1.81347656e+00   1.04931641e+00  -2.53906250e-02
  -1.89160156e+00  -3.18017578e+00  -2.68310547e+00  -2.46777344e+00
  -1.27832031e+00  -8.56933594e-01  -4.58984375e-02   1.45068359e+00
   2.37402344e+00   3.38134766e+00   4.44531250e+00   6.68017578e+00
   9.00781250e+00   1.02231445e+01   1.04873047e+01   1.00024414e+01
   8.10937500e+00   5.99023438e+00   3.89990234e+00   1.92773438e+00
   1.41601562e-01  -1.29003906e+00  -1.65478516e+00  -3.35644531e+00
  -5.04150391e+00  -6.48925781e+00  -7.49023438e+00  -7.70117188e+00
  -7.59814453e+00  -6.98730469e+00  -6.85644531e+00  -6.75585938e+00
  -5.09521484e+00  -2.96582031e+00  -8.50097656e-01   3.38574219e+00
   9.75390625e+00   1.70854492e+01   2.21821289e+01   2.61787109e+01
   2.94960938e+01   3.01254883e+01   2.82202148e+01   2.51308594e+01
   2.19643555e+01   1.78608398e+01   1.24062500e+01   6.26367188e+00
   9.76562500e-03  -7.18408203e+00  -1.44931641e+01  -2.17065430e+01]
[  -8.96191406   -8.10302734   -8.71923828   -9.58203125   -9.15673828
   -6.74267578   -2.94775391    1.87158203    8.25048828   16.84814453
   25.18359375   31.57568359   36.89746094   40.81005859   42.70507812
   41.46826172   37.81347656   32.12304688   23.95166016   14.58984375
    5.12597656   -4.71240234  -14.81152344  -23.828125    -31.54736328
  -38.33642578  -43.99365234  -48.44873047  -51.39990234  -52.32226562
  -50.38916016  -46.65576172  -41.25390625  -33.06542969  -21.35839844
   -6.38232422   12.26904297   36.95117188   64.87011719   92.00439453
  112.31591797  118.92529297  107.6640625    77.04003906   33.28955078
  -16.11328125  -61.04296875  -92.06054688 -104.43554688  -99.33984375
  -84.09472656  -64.08837891  -43.3359375   -26.06542969  -14.47851562
   -7.51220703   -1.12548828    5.60253906   11.31054688   16.12060547
   20.03320312   22.44482422   22.39501953   20.37695312   16.11865234
   10.31982422    4.55126953   -0.63964844   -5.20019531   -9.55175781
  -12.16064453  -12.23144531  -11.30517578   -9.30224609   -5.35302734
    0.88232422    8.00634766   14.47558594   20.94580078   27.73486328
   33.44287109   38.37402344   42.72998047   46.78027344   49.50878906
   50.94482422   51.65185547   50.86328125   47.85693359   42.94775391
   36.59814453   27.60839844   16.89257812    4.38720703   -7.48046875
  -19.42382812  -29.66650391  -37.40625     -43.91015625  -48.86816406
  -52.87646484  -53.61865234  -53.48974609  -52.44775391  -49.61621094
  -44.24023438  -37.34228516  -31.72070312  -26.13037109  -20.46533203
  -15.72021484  -12.68310547  -10.59863281   -7.80859375   -5.41210938
   -3.0390625     0.75488281    4.84423828    8.04394531    9.90625
   11.63867188   12.04882812   10.54199219    8.60351562    7.51269531
    7.47851562    7.42871094    8.27490234    9.35888672   11.21289062
   12.65966797   12.14355469   11.29345703   10.45898438   10.20849609
    9.15722656    7.98193359    8.41308594    8.87304688    8.59277344
    7.13720703    4.64746094    1.71972656   -1.78564453   -4.19238281
   -6.17431641   -7.26464844   -6.52050781   -4.75146484   -2.11132812
   -1.375        -1.49267578   -2.55566406   -4.50878906   -6.78857422
   -9.66943359  -10.33349609   -9.71533203   -7.43212891   -4.15966797
   -1.31689453    1.75195312    3.15869141    5.03857422    6.16845703
    6.78857422    8.58447266   10.07617188   12.72558594   14.38671875
   16.25048828   18.10839844   19.55712891   21.14306641   21.34277344
   20.39111328   18.06835938   14.50244141    8.84912109    1.85839844]
[ -5.19384766e+00  -3.83398438e+00  -3.32226562e+00  -4.50683594e+00
  -3.91162109e+00  -1.15039062e+00   2.75781250e+00   8.08154297e+00
   1.44033203e+01   2.14614258e+01   2.67558594e+01   3.06455078e+01
   3.22885742e+01   3.16069336e+01   2.89414062e+01   2.46806641e+01
   1.96992188e+01   1.27963867e+01   5.22460938e+00  -2.78808594e+00
  -1.07070312e+01  -1.82573242e+01  -2.50483398e+01  -2.94316406e+01
  -3.28876953e+01  -3.50571289e+01  -3.56972656e+01  -3.41357422e+01
  -3.11767578e+01  -2.77470703e+01  -2.27944336e+01  -1.72119141e+01
  -1.00463867e+01  -3.00830078e+00   4.42968750e+00   1.38608398e+01
   2.65629883e+01   4.38530273e+01   6.06967773e+01   7.47275391e+01
   8.20092773e+01   7.76284180e+01   5.88867188e+01   2.59995117e+01
  -1.28666992e+01  -5.01357422e+01  -7.83720703e+01  -9.22172852e+01
  -9.10273438e+01  -7.60488281e+01  -5.51132812e+01  -3.38066406e+01
  -1.60898438e+01  -3.24414062e+00   5.04980469e+00   8.10498047e+00
   1.00131836e+01   1.17817383e+01   1.36430664e+01   1.44848633e+01
   1.40410156e+01   1.35810547e+01   1.18076172e+01   9.36816406e+00
   5.72070312e+00   1.85498047e+00  -1.11669922e+00  -3.68994141e+00
  -5.29785156e+00  -6.59472656e+00  -6.24755859e+00  -4.85009766e+00
  -2.52246094e+00   1.06005859e+00   5.24365234e+00   1.02373047e+01
   1.55629883e+01   2.09536133e+01   2.52006836e+01   2.81826172e+01
   3.10351562e+01   3.34497070e+01   3.54536133e+01   3.73881836e+01
   3.97402344e+01   4.19892578e+01   4.28339844e+01   4.19135742e+01
   3.86650391e+01   3.30976562e+01   2.46992188e+01   1.42539062e+01
   2.74023438e+00  -8.22802734e+00  -1.82714844e+01  -2.78242188e+01
  -3.57578125e+01  -4.12895508e+01  -4.48339844e+01  -4.77856445e+01
  -4.99047852e+01  -4.92329102e+01  -4.58764648e+01  -4.14409180e+01
  -3.53452148e+01  -2.77036133e+01  -1.88017578e+01  -1.13588867e+01
  -5.80175781e+00  -1.94384766e+00   7.61718750e-02   1.21289062e+00
   2.09472656e-01  -1.27587891e+00  -2.68505859e+00  -3.39111328e+00
  -4.39355469e+00  -6.04833984e+00  -6.49560547e+00  -5.43261719e+00
  -3.64990234e+00  -1.51660156e+00   1.46777344e+00   4.80468750e+00
   7.77343750e+00   9.29638672e+00   1.02622070e+01   1.05053711e+01
   9.89111328e+00   8.81250000e+00   8.69189453e+00   9.74316406e+00
   9.64843750e+00   9.39550781e+00   9.18701172e+00   1.00351562e+01
   9.67236328e+00   7.78417969e+00   6.64160156e+00   5.77734375e+00
   5.74072266e+00   4.28564453e+00   1.89843750e+00  -3.75976562e-02
  -1.70117188e+00  -3.94775391e+00  -6.61425781e+00  -8.01269531e+00
  -7.36914062e+00  -6.48876953e+00  -5.52880859e+00  -3.82861328e+00
  -2.19042969e+00  -4.26757812e-01   9.14550781e-01   2.75439453e+00
   4.82861328e+00   6.64941406e+00   8.81884766e+00   9.66162109e+00
   9.23242188e+00   7.40771484e+00   3.78320312e+00  -1.56738281e-01
  -5.11816406e+00  -9.75000000e+00  -1.40170898e+01  -1.71210938e+01
  -1.79648438e+01  -1.83544922e+01  -1.74614258e+01  -1.52836914e+01
  -1.10024414e+01  -5.67431641e+00  -8.82812500e-01   4.42529297e+00
   9.64941406e+00   1.47944336e+01   1.79741211e+01   1.98237305e+01]
[ -3.26367188e+00  -2.98779297e+00  -2.38037109e+00  -1.36279297e+00
  -6.63085938e-01   9.62890625e-01   4.39550781e+00   8.17773438e+00
   1.26088867e+01   1.78413086e+01   2.32294922e+01   2.70302734e+01
   2.79624023e+01   2.72270508e+01   2.51552734e+01   2.09633789e+01
   1.58916016e+01   1.03090820e+01   5.74365234e+00   1.37988281e+00
  -4.12011719e+00  -9.59033203e+00  -1.51381836e+01  -1.98837891e+01
  -2.49404297e+01  -2.92524414e+01  -3.19194336e+01  -3.25942383e+01
  -3.13808594e+01  -2.97666016e+01  -2.70522461e+01  -2.31064453e+01
  -1.64594727e+01  -8.52441406e+00   3.90625000e-01   1.30288086e+01
   2.91162109e+01   4.72177734e+01   6.27583008e+01   7.31816406e+01
   7.50688477e+01   6.45898438e+01   4.23305664e+01   1.05356445e+01
  -2.41889648e+01  -5.50180664e+01  -7.59946289e+01  -8.37753906e+01
  -7.98134766e+01  -6.69062500e+01  -5.00888672e+01  -3.35317383e+01
  -1.96157227e+01  -9.36376953e+00  -1.88476562e+00   4.12402344e+00
   9.39892578e+00   1.40971680e+01   1.77382812e+01   1.93544922e+01
   1.88486328e+01   1.69252930e+01   1.47099609e+01   1.15214844e+01
   8.24560547e+00   5.81494141e+00   3.75390625e+00   1.28906250e+00
  -2.28955078e+00  -4.29589844e+00  -5.70849609e+00  -6.60839844e+00
  -5.41162109e+00  -3.04541016e+00   6.76757812e-01   3.13818359e+00
   6.23583984e+00   1.03071289e+01   1.36010742e+01   1.73120117e+01
   2.24038086e+01   3.00131836e+01   3.65683594e+01   4.17153320e+01
   4.61596680e+01   4.93964844e+01   5.05659180e+01   4.77124023e+01
   4.30297852e+01   3.63750000e+01   2.73632812e+01   1.64858398e+01
   3.19873047e+00  -9.34423828e+00  -2.03159180e+01  -2.98872070e+01
  -3.75966797e+01  -4.31484375e+01  -4.51206055e+01  -4.54116211e+01
  -4.50971680e+01  -4.40791016e+01  -4.12270508e+01  -3.64448242e+01
  -3.10825195e+01  -2.49516602e+01  -1.85375977e+01  -1.15024414e+01
  -5.90185547e+00  -2.54150391e+00  -6.32324219e-01  -6.25000000e-02
   8.20312500e-02  -4.41406250e-01  -7.86132812e-01  -9.25292969e-01
  -1.61083984e+00  -2.31933594e+00  -2.81689453e+00  -2.68701172e+00
  -1.39453125e+00   9.80468750e-01   4.77246094e+00   1.00644531e+01
   1.48925781e+01   1.83017578e+01   1.92343750e+01   1.83403320e+01
   1.60327148e+01   1.17270508e+01   7.54003906e+00   4.10302734e+00
   1.56005859e+00  -7.39746094e-01  -2.47167969e+00  -2.76757812e+00
  -3.16308594e+00  -4.11816406e+00  -4.43457031e+00  -3.13574219e+00
  -9.28710938e-01  -2.71972656e-01   3.91601562e-01   1.54736328e+00
   2.37841797e+00   1.61816406e+00  -5.19531250e-01  -1.54003906e+00
  -2.27832031e+00  -2.92724609e+00  -3.17041016e+00  -2.23974609e+00
  -1.00488281e+00  -1.24023438e-01   1.27392578e+00   3.20605469e+00
   4.32470703e+00   4.73779297e+00   5.11376953e+00   5.26904297e+00
   3.55664062e+00   9.50195312e-01  -1.01562500e+00  -2.73339844e+00
  -3.52441406e+00  -3.77783203e+00  -2.63183594e+00  -1.25830078e+00
  -3.89648438e-01   6.73828125e-02  -9.19921875e-01  -2.23095703e+00
  -3.13134766e+00  -3.56933594e+00  -3.22851562e+00  -2.74951172e+00
  -7.64160156e-01   1.45410156e+00   2.75341797e+00   3.39355469e+00]
[ -8.31396484e+00  -7.57617188e+00  -5.91259766e+00  -4.51269531e+00
  -2.26757812e+00   1.29492188e+00   5.01074219e+00   9.74755859e+00
   1.39238281e+01   1.80756836e+01   2.18032227e+01   2.39169922e+01
   2.45654297e+01   2.31933594e+01   2.09628906e+01   1.80673828e+01
   1.31416016e+01   7.84765625e+00   1.94580078e+00  -3.82519531e+00
  -9.44580078e+00  -1.52817383e+01  -1.96420898e+01  -2.34135742e+01
  -2.63120117e+01  -2.86542969e+01  -2.99697266e+01  -2.97705078e+01
  -2.82343750e+01  -2.54721680e+01  -2.21357422e+01  -1.73427734e+01
  -1.12875977e+01  -4.12939453e+00   4.36523438e+00   1.59169922e+01
   3.15351562e+01   4.85112305e+01   6.28598633e+01   7.17592773e+01
   7.15043945e+01   5.85053711e+01   3.33164062e+01   6.12792969e-01
  -3.30512695e+01  -6.19013672e+01  -7.98759766e+01  -8.38134766e+01
  -7.56030273e+01  -6.01064453e+01  -4.15444336e+01  -2.38134766e+01
  -9.67431641e+00   1.35253906e-01   5.66015625e+00   9.16259766e+00
   1.23437500e+01   1.56953125e+01   1.84931641e+01   1.98593750e+01
   2.01606445e+01   1.90781250e+01   1.61416016e+01   1.20952148e+01
   7.78906250e+00   3.37207031e+00  -3.34960938e-01  -3.24169922e+00
  -5.08251953e+00  -6.33740234e+00  -7.70849609e+00  -7.38281250e+00
  -5.52490234e+00  -2.35693359e+00   1.12597656e+00   4.83349609e+00
   9.26318359e+00   1.35766602e+01   1.75273438e+01   2.13647461e+01
   2.55327148e+01   3.00517578e+01   3.44516602e+01   3.71020508e+01
   3.89082031e+01   3.95439453e+01   3.89628906e+01   3.77036133e+01
   3.55004883e+01   3.24384766e+01   2.67934570e+01   1.92441406e+01
   1.01323242e+01  -1.26220703e+00  -1.34687500e+01  -2.44013672e+01
  -3.31967773e+01  -4.03818359e+01  -4.52333984e+01  -4.74145508e+01
  -4.73222656e+01  -4.57973633e+01  -4.31132812e+01  -3.86357422e+01
  -3.42080078e+01  -2.97001953e+01  -2.50922852e+01  -2.08706055e+01
  -1.67055664e+01  -1.31860352e+01  -8.90283203e+00  -3.49951172e+00
   1.07568359e+00   5.00000000e+00   8.29882812e+00   1.05053711e+01
   1.14145508e+01   9.69042969e+00   7.34228516e+00   4.77197266e+00
   2.15185547e+00   5.16601562e-01  -6.66992188e-01  -3.05175781e-01
   1.32910156e+00   3.60791016e+00   5.70605469e+00   7.13574219e+00
   8.36621094e+00   9.20068359e+00   9.09960938e+00   8.54248047e+00
   7.83300781e+00   6.98535156e+00   6.54394531e+00   5.99169922e+00
   6.40283203e+00   6.56005859e+00   6.49511719e+00   6.59667969e+00
   6.20410156e+00   5.65869141e+00   3.17089844e+00   1.01806641e+00
  -5.14160156e-01  -1.88574219e+00  -3.77441406e+00  -5.67871094e+00
  -5.65966797e+00  -5.63720703e+00  -5.72460938e+00  -5.97558594e+00
  -4.94140625e+00  -3.44628906e+00  -2.95654297e+00  -2.32617188e+00
  -1.36230469e+00  -2.00195312e-02   2.20214844e-01  -1.08398438e-01
  -2.43652344e-01  -3.49121094e-01  -1.75781250e-01  -3.14941406e-01
   2.73437500e-02   1.20458984e+00   2.93408203e+00   4.08544922e+00
   3.43310547e+00   2.42822266e+00   1.50195312e+00  -2.58789062e-02
  -2.57226562e+00  -4.95751953e+00  -5.87646484e+00  -5.95654297e+00
  -6.77734375e+00  -7.93896484e+00  -7.73779297e+00  -6.94482422e+00]
[ -1.28271484e+01  -1.37280273e+01  -1.26831055e+01  -1.04184570e+01
  -6.64404297e+00  -3.55468750e-01   5.53515625e+00   1.14399414e+01
   1.59902344e+01   2.10380859e+01   2.42939453e+01   2.52124023e+01
   2.51284180e+01   2.43642578e+01   2.31660156e+01   2.00727539e+01
   1.57753906e+01   1.07329102e+01   5.64599609e+00  -3.34960938e-01
  -7.09863281e+00  -1.41533203e+01  -1.98120117e+01  -2.40400391e+01
  -2.77895508e+01  -3.10654297e+01  -3.27314453e+01  -3.25283203e+01
  -3.14003906e+01  -2.92114258e+01  -2.54277344e+01  -2.00278320e+01
  -1.25756836e+01  -3.01855469e+00   9.63037109e+00   2.63168945e+01
   4.56962891e+01   6.71923828e+01   8.65161133e+01   9.79941406e+01
   9.66425781e+01   7.93510742e+01   4.89326172e+01   8.96142578e+00
  -3.43012695e+01  -6.98139648e+01  -9.04497070e+01  -9.43974609e+01
  -8.46103516e+01  -6.64697266e+01  -4.42988281e+01  -2.44423828e+01
  -1.00751953e+01  -1.22802734e+00   2.65380859e+00   5.44580078e+00
   7.73388672e+00   9.68994141e+00   1.05327148e+01   1.07451172e+01
   1.08681641e+01   9.59863281e+00   7.07666016e+00   3.72363281e+00
   7.98828125e-01  -2.53515625e+00  -5.97949219e+00  -9.73339844e+00
  -1.23452148e+01  -1.34477539e+01  -1.39160156e+01  -1.30537109e+01
  -1.12441406e+01  -7.61816406e+00  -2.79736328e+00   2.95410156e+00
   9.96630859e+00   1.77490234e+01   2.59965820e+01   3.42128906e+01
   4.05585938e+01   4.47377930e+01   4.76982422e+01   4.95380859e+01
   5.04565430e+01   4.95039062e+01   4.83105469e+01   4.67968750e+01
   4.36958008e+01   3.92612305e+01   3.23916016e+01   2.40581055e+01
   1.38920898e+01   2.35009766e+00  -9.51562500e+00  -2.27460938e+01
  -3.45522461e+01  -4.47319336e+01  -5.27509766e+01  -5.72866211e+01
  -5.91826172e+01  -5.75234375e+01  -5.38906250e+01  -4.78544922e+01
  -3.99135742e+01  -3.29052734e+01  -2.73300781e+01  -2.22172852e+01
  -1.77846680e+01  -1.53188477e+01  -1.42387695e+01  -1.30844727e+01
  -1.00048828e+01  -6.87988281e+00  -3.86669922e+00   1.67480469e-01
   3.89160156e+00   6.89013672e+00   7.12890625e+00   6.38183594e+00
   5.89208984e+00   4.73632812e+00   3.60888672e+00   3.39794922e+00
   5.45263672e+00   7.46435547e+00   7.74072266e+00   7.66699219e+00
   7.99755859e+00   8.05517578e+00   6.69433594e+00   5.12890625e+00
   4.89648438e+00   5.26855469e+00   5.33984375e+00   4.38134766e+00
   3.64794922e+00   4.07373047e+00   4.88134766e+00   4.36865234e+00
   2.51025391e+00   1.53857422e+00   1.16748047e+00   4.96582031e-01
  -2.46093750e-01   1.36718750e-02   1.51171875e+00   1.82763672e+00
   1.47558594e+00   1.15576172e+00   6.04492188e-01   1.02636719e+00
   2.26220703e+00   5.56640625e+00   8.79199219e+00   1.07192383e+01
   1.13334961e+01   9.29248047e+00   5.65380859e+00   7.42187500e-01
  -3.83007812e+00  -7.50048828e+00  -1.03505859e+01  -1.19521484e+01
  -1.28417969e+01  -1.39370117e+01  -1.55903320e+01  -1.68432617e+01
  -1.70957031e+01  -1.65722656e+01  -1.55615234e+01  -1.33110352e+01
  -9.48095703e+00  -5.75683594e+00  -2.16210938e+00   1.65332031e+00
   4.94384766e+00   6.89550781e+00   6.51855469e+00   5.84960938e+00]
[ -6.21240234e+00  -4.84570312e+00  -4.44384766e+00  -4.29687500e+00
  -3.07226562e+00  -6.30371094e-01   3.31835938e+00   6.94482422e+00
   1.16010742e+01   1.70224609e+01   2.17436523e+01   2.51474609e+01
   2.66416016e+01   2.79379883e+01   2.71127930e+01   2.48300781e+01
   2.12446289e+01   1.61157227e+01   1.00620117e+01   3.29394531e+00
  -3.03955078e+00  -1.05776367e+01  -1.84165039e+01  -2.45820312e+01
  -2.94062500e+01  -3.35766602e+01  -3.67700195e+01  -3.79677734e+01
  -3.65029297e+01  -3.37734375e+01  -2.97573242e+01  -2.37480469e+01
  -1.64360352e+01  -6.80517578e+00   4.95117188e+00   1.97739258e+01
   3.81684570e+01   5.91020508e+01   8.11972656e+01   9.90493164e+01
   1.06059082e+02   9.82573242e+01   7.54960938e+01   4.04130859e+01
  -2.38330078e+00  -4.40224609e+01  -7.43320312e+01  -8.89672852e+01
  -8.88212891e+01  -7.78364258e+01  -6.05693359e+01  -4.22114258e+01
  -2.76831055e+01  -1.73154297e+01  -1.01665039e+01  -5.01074219e+00
  -6.93359375e-02   5.04003906e+00   1.05830078e+01   1.45947266e+01
   1.61254883e+01   1.56997070e+01   1.43852539e+01   1.17089844e+01
   7.56933594e+00   3.58691406e+00   1.06298828e+00   1.89453125e-01
  -1.28808594e+00  -2.35693359e+00  -2.20166016e+00  -1.62353516e+00
  -2.14941406e+00  -3.05322266e+00  -3.05371094e+00  -2.39746094e+00
  -1.15673828e+00   1.08789062e+00   5.79492188e+00   1.14658203e+01
   1.80029297e+01   2.60332031e+01   3.38891602e+01   4.10712891e+01
   4.64960938e+01   5.08740234e+01   5.37377930e+01   5.29858398e+01
   5.03559570e+01   4.51865234e+01   3.75307617e+01   2.73168945e+01
   1.47353516e+01   1.80273438e+00  -1.17651367e+01  -2.40302734e+01
  -3.42377930e+01  -4.27529297e+01  -4.84057617e+01  -5.15253906e+01
  -5.23706055e+01  -5.16987305e+01  -4.93437500e+01  -4.44897461e+01
  -3.90395508e+01  -3.32456055e+01  -2.69506836e+01  -2.04711914e+01
  -1.44472656e+01  -9.93066406e+00  -5.04199219e+00  -9.74121094e-01
   1.55957031e+00   3.22705078e+00   3.93847656e+00   4.61523438e+00
   3.70556641e+00   3.04931641e+00   3.52587891e+00   4.09423828e+00
   4.84765625e+00   4.59228516e+00   4.61425781e+00   4.72460938e+00
   4.77001953e+00   3.97558594e+00   3.28320312e+00   4.27246094e+00
   4.94921875e+00   5.15869141e+00   4.19238281e+00   4.33837891e+00
   4.34863281e+00   2.69677734e+00   1.60791016e+00   2.29980469e-01
  -5.30761719e-01  -1.68847656e+00  -2.35400391e+00  -1.41162109e+00
  -5.55664062e-01   7.72949219e-01   2.48632812e+00   4.74072266e+00
   6.01806641e+00   6.15380859e+00   6.56884766e+00   7.15869141e+00
   7.26318359e+00   6.10107422e+00   4.88183594e+00   3.74414062e+00
   1.64892578e+00  -9.70703125e-01  -3.11865234e+00  -4.54980469e+00
  -5.47851562e+00  -5.97314453e+00  -5.33007812e+00  -4.41894531e+00
  -4.50439453e+00  -4.00683594e+00  -2.85498047e+00  -1.43505859e+00
  -1.38671875e-01   8.19335938e-01   2.83154297e+00   4.17138672e+00
   4.60546875e+00   4.49511719e+00   3.76074219e+00   3.76318359e+00
   3.18750000e+00   1.94580078e+00   1.36914062e+00   8.44238281e-01
   2.79296875e-01  -1.29492188e+00  -3.27880859e+00  -4.55712891e+00]
[ -8.62792969e-01  -1.05273438e+00  -1.88183594e+00  -1.82812500e+00
  -1.05029297e+00   3.58886719e-01   2.90234375e+00   5.99072266e+00
   9.14599609e+00   1.27832031e+01   1.69633789e+01   2.10634766e+01
   2.44428711e+01   2.75292969e+01   2.98427734e+01   2.93159180e+01
   2.66767578e+01   2.18647461e+01   1.53276367e+01   7.01074219e+00
  -1.92431641e+00  -1.01235352e+01  -1.86630859e+01  -2.64228516e+01
  -3.36103516e+01  -3.91884766e+01  -4.36391602e+01  -4.75068359e+01
  -4.86621094e+01  -4.74252930e+01  -4.37368164e+01  -3.86689453e+01
  -3.11367188e+01  -1.98803711e+01  -4.83691406e+00   1.47988281e+01
   3.91313477e+01   6.69721680e+01   9.33139648e+01   1.12678223e+02
   1.17925293e+02   1.05210449e+02   7.62065430e+01   3.42421875e+01
  -1.29594727e+01  -5.60380859e+01  -8.52006836e+01  -9.64804688e+01
  -9.41958008e+01  -8.09248047e+01  -6.16992188e+01  -4.24077148e+01
  -2.72143555e+01  -1.62104492e+01  -7.16259766e+00  -4.23828125e-01
   4.92968750e+00   1.00180664e+01   1.47617188e+01   1.74482422e+01
   1.70375977e+01   1.51015625e+01   1.24228516e+01   8.47949219e+00
   3.38818359e+00  -1.64990234e+00  -4.41259766e+00  -5.89550781e+00
  -7.29882812e+00  -7.47753906e+00  -5.99023438e+00  -3.81884766e+00
  -1.53564453e+00   8.52050781e-01   4.31054688e+00   7.72070312e+00
   1.07436523e+01   1.39243164e+01   1.67924805e+01   1.98886719e+01
   2.31108398e+01   2.70903320e+01   3.20913086e+01   3.76323242e+01
   4.32797852e+01   4.81865234e+01   5.20039062e+01   5.32587891e+01
   5.14379883e+01   4.59389648e+01   3.79672852e+01   2.78544922e+01
   1.51098633e+01   1.93750000e+00  -1.13378906e+01  -2.31943359e+01
  -3.50761719e+01  -4.54677734e+01  -5.21181641e+01  -5.57158203e+01
  -5.71845703e+01  -5.71889648e+01  -5.32055664e+01  -4.64526367e+01
  -4.01801758e+01  -3.43911133e+01  -2.79355469e+01  -2.07729492e+01
  -1.55527344e+01  -1.21425781e+01  -8.37792969e+00  -4.80078125e+00
  -2.08007812e+00   4.05761719e-01   3.03369141e+00   4.47802734e+00
   5.20166016e+00   5.47558594e+00   6.25195312e+00   5.77832031e+00
   5.36230469e+00   7.03369141e+00   8.48925781e+00   9.22949219e+00
   8.31494141e+00   8.34667969e+00   7.63281250e+00   5.33691406e+00
   3.24560547e+00   2.61328125e+00   3.68066406e+00   4.08544922e+00
   5.02148438e+00   6.00048828e+00   7.10009766e+00   6.29101562e+00
   4.24658203e+00   2.18896484e+00  -1.21044922e+00  -3.77734375e+00
  -5.90332031e+00  -6.07031250e+00  -5.92138672e+00  -5.45996094e+00
  -2.45996094e+00   6.71875000e-01   2.60839844e+00   3.66992188e+00
   5.00048828e+00   6.72021484e+00   7.63134766e+00   7.81835938e+00
   8.82568359e+00   9.78515625e+00   1.08193359e+01   1.03852539e+01
   8.45117188e+00   6.39160156e+00   3.71289062e+00   6.68457031e-01
  -3.23779297e+00  -5.60644531e+00  -6.38671875e+00  -6.90429688e+00
  -7.24609375e+00  -6.70117188e+00  -4.15917969e+00  -1.92285156e+00
  -1.15625000e+00  -8.02734375e-01   5.34179688e-01   1.69238281e+00
   1.18164062e+00   2.09472656e-01   6.57226562e-01   1.97509766e+00
   2.24560547e+00   1.17333984e+00   2.34375000e-02  -9.64843750e-01]
[ -1.24282227e+01  -1.36733398e+01  -1.34389648e+01  -1.10878906e+01
  -7.41552734e+00  -3.17773438e+00   1.76123047e+00   6.53613281e+00
   1.14501953e+01   1.57226562e+01   1.89809570e+01   2.19008789e+01
   2.35083008e+01   2.46835938e+01   2.47949219e+01   2.38637695e+01
   2.14521484e+01   1.74614258e+01   1.21362305e+01   6.32080078e+00
  -5.57617188e-01  -8.83837891e+00  -1.71513672e+01  -2.52260742e+01
  -3.09877930e+01  -3.58935547e+01  -4.03110352e+01  -4.27519531e+01
  -4.33505859e+01  -4.20522461e+01  -4.17016602e+01  -4.05043945e+01
  -3.51616211e+01  -2.67514648e+01  -1.48129883e+01   1.90380859e+00
   2.61816406e+01   5.46484375e+01   8.12177734e+01   1.01483398e+02
   1.08948242e+02   9.92416992e+01   7.06816406e+01   2.93950195e+01
  -1.70278320e+01  -5.93632812e+01  -8.86166992e+01  -1.00058594e+02
  -9.45527344e+01  -7.81977539e+01  -5.63134766e+01  -3.43618164e+01
  -1.56928711e+01  -2.31103516e+00   6.17187500e+00   1.23017578e+01
   1.72895508e+01   2.18740234e+01   2.52592773e+01   2.64663086e+01
   2.67998047e+01   2.49096680e+01   2.11748047e+01   1.57016602e+01
   9.46728516e+00   4.59814453e+00  -1.54785156e-01  -3.26123047e+00
  -5.01025391e+00  -5.52539062e+00  -4.26074219e+00  -3.75488281e+00
  -3.05761719e+00  -2.05322266e+00  -5.18066406e-01   2.14794922e+00
   3.94482422e+00   7.34619141e+00   1.20258789e+01   1.68969727e+01
   2.17431641e+01   2.62719727e+01   3.16225586e+01   3.73056641e+01
   4.24902344e+01   4.69584961e+01   5.06098633e+01   5.24140625e+01
   5.18940430e+01   4.77163086e+01   4.00488281e+01   3.01894531e+01
   1.81884766e+01   5.33642578e+00  -7.74462891e+00  -2.02060547e+01
  -3.07446289e+01  -3.91162109e+01  -4.47983398e+01  -4.84355469e+01
  -4.99345703e+01  -4.90942383e+01  -4.64731445e+01  -4.36865234e+01
  -4.09414062e+01  -3.77690430e+01  -3.42841797e+01  -3.01333008e+01
  -2.55825195e+01  -2.04257812e+01  -1.47568359e+01  -8.70654297e+00
  -3.06298828e+00   6.03515625e-01   2.88818359e+00   4.88574219e+00
   6.41259766e+00   7.16455078e+00   7.47460938e+00   8.82177734e+00
   1.01235352e+01   1.02519531e+01   9.46386719e+00   7.94970703e+00
   6.72656250e+00   5.25146484e+00   3.87353516e+00   3.48486328e+00
   3.45898438e+00   3.26660156e+00   2.87060547e+00   2.48144531e+00
   2.54882812e+00   2.89599609e+00   3.29345703e+00   4.58349609e+00
   5.15625000e+00   4.77392578e+00   3.51708984e+00   1.36279297e+00
  -1.07421875e-02  -1.35205078e+00  -1.65332031e+00  -9.91699219e-01
  -2.52441406e-01   6.85058594e-01   9.01367188e-01   1.22216797e+00
   1.43017578e+00   1.35351562e+00   1.96826172e+00   2.16308594e+00
   1.48339844e+00   5.66406250e-02  -2.09570312e+00  -4.25488281e+00
  -6.80126953e+00  -8.46679688e+00  -8.69335938e+00  -8.18066406e+00
  -7.23144531e+00  -6.12548828e+00  -4.75146484e+00  -3.06787109e+00
  -1.09326172e+00   7.34863281e-01   2.45996094e+00   4.45312500e+00
   6.45312500e+00   7.09033203e+00   6.12060547e+00   3.68603516e+00
   1.28271484e+00  -2.11621094e+00  -6.17041016e+00  -9.53271484e+00
  -1.17695312e+01  -1.16884766e+01  -1.04130859e+01  -8.11523438e+00]
[ -4.94970703e+00  -5.15136719e+00  -6.73632812e+00  -7.38769531e+00
  -6.13281250e+00  -4.56591797e+00  -1.89257812e+00   2.91308594e+00
   9.10742188e+00   1.44541016e+01   1.90024414e+01   2.36767578e+01
   2.72641602e+01   2.80839844e+01   2.77163086e+01   2.72221680e+01
   2.50800781e+01   2.07343750e+01   1.46845703e+01   8.49951172e+00
   1.93554688e+00  -6.15429688e+00  -1.41606445e+01  -2.14946289e+01
  -2.84179688e+01  -3.50327148e+01  -4.10146484e+01  -4.39916992e+01
  -4.46918945e+01  -4.34311523e+01  -3.94492188e+01  -3.31245117e+01
  -2.39233398e+01  -1.40488281e+01  -3.05810547e+00   1.09467773e+01
   2.97880859e+01   5.32451172e+01   7.74375000e+01   9.93896484e+01
   1.12448730e+02   1.09913574e+02   8.83735352e+01   4.95341797e+01
   1.19140625e-01  -5.04526367e+01  -9.01108398e+01  -1.10932617e+02
  -1.12331543e+02  -9.84316406e+01  -7.47587891e+01  -4.81650391e+01
  -2.53090820e+01  -9.90673828e+00  -4.46289062e-01   5.91015625e+00
   9.81103516e+00   1.22578125e+01   1.39487305e+01   1.55253906e+01
   1.53925781e+01   1.32543945e+01   1.05859375e+01   7.51464844e+00
   4.47509766e+00   1.89160156e+00  -2.87109375e-01  -1.15478516e+00
  -1.37207031e+00  -1.18798828e+00  -8.59375000e-01  -1.17724609e+00
  -3.18359375e-01   4.44335938e-02   7.66601562e-01   3.17089844e+00
   6.45654297e+00   1.08823242e+01   1.51469727e+01   2.03710938e+01
   2.59565430e+01   3.04238281e+01   3.40478516e+01   3.74506836e+01
   4.11293945e+01   4.43686523e+01   4.60390625e+01   4.62158203e+01
   4.49057617e+01   4.10317383e+01   3.42485352e+01   2.47221680e+01
   1.30288086e+01   1.45019531e-01  -1.24140625e+01  -2.39257812e+01
  -3.38134766e+01  -4.14033203e+01  -4.53930664e+01  -4.67641602e+01
  -4.65087891e+01  -4.49770508e+01  -4.22534180e+01  -3.93281250e+01
  -3.67133789e+01  -3.35146484e+01  -2.98173828e+01  -2.51083984e+01
  -2.06997070e+01  -1.57133789e+01  -1.05825195e+01  -6.00488281e+00
  -2.15771484e+00  -5.76171875e-02   1.75195312e+00   3.46435547e+00
   4.12890625e+00   4.14794922e+00   3.47900391e+00   4.02978516e+00
   4.90869141e+00   4.90234375e+00   5.58789062e+00   6.57470703e+00
   8.41455078e+00   8.03076172e+00   6.91943359e+00   6.17236328e+00
   5.68994141e+00   5.97656250e+00   6.21826172e+00   8.06640625e+00
   9.74609375e+00   1.11284180e+01   1.12636719e+01   9.28515625e+00
   6.11669922e+00   2.93750000e+00   1.91894531e-01  -2.64599609e+00
  -5.21191406e+00  -6.36572266e+00  -6.23144531e+00  -5.44433594e+00
  -4.04443359e+00  -2.42138672e+00  -2.92968750e-02   2.90234375e+00
   4.79394531e+00   5.24560547e+00   4.99755859e+00   4.56103516e+00
   3.73876953e+00   1.67968750e+00  -5.71289062e-02  -8.94531250e-01
  -1.19970703e+00  -1.12841797e+00  -1.30175781e+00  -1.07617188e+00
  -3.35937500e-01   7.91015625e-02  -1.26416016e+00  -3.45410156e+00
  -5.48876953e+00  -7.54150391e+00  -1.02763672e+01  -1.34150391e+01
  -1.41181641e+01  -1.38017578e+01  -1.20781250e+01  -9.17089844e+00
  -4.90332031e+00   2.86621094e-01   4.41601562e+00   9.23388672e+00
   1.27573242e+01   1.60307617e+01   1.90048828e+01   2.19570312e+01]
[ -1.49370117e+01  -1.64526367e+01  -1.62827148e+01  -1.45278320e+01
  -1.06645508e+01  -4.86962891e+00   1.56298828e+00   7.43017578e+00
   1.33457031e+01   1.91689453e+01   2.41201172e+01   2.81000977e+01
   3.14833984e+01   3.39238281e+01   3.43129883e+01   3.27753906e+01
   2.84243164e+01   2.18505859e+01   1.26621094e+01   2.40478516e+00
  -7.19482422e+00  -1.61904297e+01  -2.27622070e+01  -2.80732422e+01
  -3.13969727e+01  -3.40673828e+01  -3.69536133e+01  -3.95844727e+01
  -4.18022461e+01  -4.21987305e+01  -4.12885742e+01  -3.79941406e+01
  -3.11938477e+01  -2.12539062e+01  -7.62011719e+00   1.04780273e+01
   3.45444336e+01   6.36469727e+01   9.17036133e+01   1.12889648e+02
   1.20994141e+02   1.12166992e+02   8.47534180e+01   4.06699219e+01
  -1.02133789e+01  -5.62153320e+01  -8.83808594e+01  -1.02997070e+02
  -1.00700684e+02  -8.56313477e+01  -6.44672852e+01  -4.39287109e+01
  -2.70429688e+01  -1.51640625e+01  -7.39892578e+00  -1.63134766e+00
   3.42529297e+00   8.89355469e+00   1.35820312e+01   1.68076172e+01
   1.77470703e+01   1.71391602e+01   1.60659180e+01   1.32197266e+01
   8.49462891e+00   3.91503906e+00   7.48535156e-01  -1.42089844e+00
  -3.63964844e+00  -4.99707031e+00  -4.60546875e+00  -3.61474609e+00
  -2.64941406e+00  -1.62500000e+00   8.74023438e-02   2.93945312e+00
   6.41796875e+00   1.02705078e+01   1.49580078e+01   1.98110352e+01
   2.49179688e+01   3.01469727e+01   3.44667969e+01   3.81606445e+01
   4.08505859e+01   4.35903320e+01   4.52285156e+01   4.45825195e+01
   4.24838867e+01   3.84858398e+01   3.25219727e+01   2.28618164e+01
   1.09487305e+01  -2.04687500e+00  -1.50673828e+01  -2.75678711e+01
  -3.91381836e+01  -4.65156250e+01  -5.09760742e+01  -5.30732422e+01
  -5.31494141e+01  -5.07143555e+01  -4.57177734e+01  -4.11748047e+01
  -3.58305664e+01  -2.88217773e+01  -2.14506836e+01  -1.59111328e+01
  -1.21953125e+01  -8.04882812e+00  -5.17431641e+00  -4.43603516e+00
  -4.40966797e+00  -2.86328125e+00  -6.73339844e-01  -1.76269531e-01
   1.25683594e+00   2.89208984e+00   4.30419922e+00   4.77441406e+00
   5.12451172e+00   7.26562500e+00   8.78369141e+00   1.05522461e+01
   1.20332031e+01   1.34409180e+01   1.41020508e+01   1.28173828e+01
   1.05898438e+01   8.12353516e+00   5.98486328e+00   3.83837891e+00
   2.36279297e+00   1.75097656e+00   1.94824219e+00   2.69873047e+00
   3.89111328e+00   5.31250000e+00   6.13232422e+00   6.34716797e+00
   6.51123047e+00   5.80859375e+00   3.90087891e+00   1.41015625e+00
  -3.07128906e-01  -1.71044922e+00  -3.46679688e+00  -4.46044922e+00
  -4.61816406e+00  -4.25146484e+00  -4.89648438e+00  -4.95312500e+00
  -4.31787109e+00  -3.80224609e+00  -3.32031250e+00  -2.95068359e+00
  -1.90673828e+00  -1.20263672e+00  -8.37890625e-01  -1.11132812e+00
  -1.43457031e+00  -1.93164062e+00  -2.12011719e+00  -2.04052734e+00
  -3.13037109e+00  -3.93603516e+00  -4.32617188e+00  -4.68164062e+00
  -5.72705078e+00  -7.27587891e+00  -7.35644531e+00  -6.60888672e+00
  -6.28027344e+00  -5.54785156e+00  -3.15087891e+00   6.00585938e-01
   5.31298828e+00   1.01049805e+01   1.54790039e+01   2.17226562e+01]
[ -6.61816406e+00  -8.42333984e+00  -9.88232422e+00  -1.12075195e+01
  -1.19291992e+01  -1.17783203e+01  -9.55859375e+00  -4.69921875e+00
   2.80029297e+00   1.11938477e+01   1.85571289e+01   2.58530273e+01
   3.19145508e+01   3.52167969e+01   3.51142578e+01   3.28828125e+01
   2.98061523e+01   2.50214844e+01   1.81274414e+01   1.05346680e+01
   2.32617188e+00  -5.91308594e+00  -1.46860352e+01  -2.41455078e+01
  -3.17666016e+01  -3.77529297e+01  -4.20249023e+01  -4.44477539e+01
  -4.40449219e+01  -4.04487305e+01  -3.63471680e+01  -3.20688477e+01
  -2.63266602e+01  -1.88051758e+01  -9.29003906e+00   3.59130859e+00
   2.30644531e+01   4.97695312e+01   7.84462891e+01   1.03158691e+02
   1.17312500e+02   1.15334961e+02   9.42587891e+01   5.47075195e+01
   4.56347656e+00  -4.62934570e+01  -8.63930664e+01  -1.08272949e+02
  -1.12156250e+02  -1.01075684e+02  -8.03583984e+01  -5.52255859e+01
  -3.25776367e+01  -1.60361328e+01  -4.48046875e+00   4.10009766e+00
   1.07343750e+01   1.50937500e+01   1.88100586e+01   2.10756836e+01
   2.17763672e+01   2.07578125e+01   1.86279297e+01   1.57949219e+01
   1.16782227e+01   7.68115234e+00   3.64404297e+00  -1.29882812e-01
  -3.53564453e+00  -6.31201172e+00  -8.10205078e+00  -8.73828125e+00
  -7.56884766e+00  -5.09570312e+00  -1.86376953e+00   2.54492188e+00
   7.79296875e+00   1.33681641e+01   1.86337891e+01   2.37856445e+01
   2.91840820e+01   3.42075195e+01   3.86069336e+01   4.28408203e+01
   4.62465820e+01   4.87875977e+01   4.97954102e+01   4.91914062e+01
   4.70434570e+01   4.22504883e+01   3.56562500e+01   2.67089844e+01
   1.59829102e+01   3.61572266e+00  -9.44140625e+00  -2.24414062e+01
  -3.41313477e+01  -4.35927734e+01  -5.11279297e+01  -5.53964844e+01
  -5.69799805e+01  -5.58901367e+01  -5.40092773e+01  -5.12895508e+01
  -4.71606445e+01  -4.23779297e+01  -3.69101562e+01  -3.09458008e+01
  -2.39965820e+01  -1.66899414e+01  -9.72412109e+00  -4.15283203e+00
   6.98242188e-02   2.98144531e+00   4.43408203e+00   5.03808594e+00
   5.62109375e+00   6.19189453e+00   7.00830078e+00   7.82080078e+00
   8.65771484e+00   9.28271484e+00   9.10839844e+00   9.48486328e+00
   9.20605469e+00   8.76074219e+00   8.54052734e+00   8.66015625e+00
   9.10205078e+00   8.68945312e+00   7.85546875e+00   6.97265625e+00
   6.15039062e+00   4.94238281e+00   3.72607422e+00   2.72509766e+00
   2.55566406e+00   2.24121094e+00   1.85253906e+00   1.99707031e+00
   2.06884766e+00   2.07861328e+00   1.70019531e+00   1.63574219e+00
   1.54296875e+00   9.11132812e-01  -1.45019531e-01  -1.22802734e+00
  -1.90625000e+00  -2.16015625e+00  -2.41455078e+00  -3.52490234e+00
  -4.49560547e+00  -4.57373047e+00  -4.48388672e+00  -5.51123047e+00
  -7.07031250e+00  -7.89306641e+00  -8.50976562e+00  -9.35839844e+00
  -9.99609375e+00  -9.10986328e+00  -6.80175781e+00  -2.27978516e+00
   3.77148438e+00   9.61718750e+00   1.58935547e+01   2.15639648e+01
   2.69062500e+01   2.97006836e+01   2.99951172e+01   2.95468750e+01
   2.72978516e+01   2.42695312e+01   1.92065430e+01   1.30849609e+01
   7.14697266e+00   5.27343750e-02  -7.73486328e+00  -1.61494141e+01]
[ -8.32910156e+00  -8.48535156e+00  -7.99560547e+00  -7.43945312e+00
  -5.48144531e+00  -3.19287109e+00   6.33300781e-01   5.08740234e+00
   1.01557617e+01   1.59326172e+01   2.15400391e+01   2.70776367e+01
   3.07133789e+01   3.18769531e+01   3.13710938e+01   2.90708008e+01
   2.49345703e+01   1.84838867e+01   1.13359375e+01   4.73046875e+00
  -2.81396484e+00  -1.09526367e+01  -1.91083984e+01  -2.63544922e+01
  -3.26171875e+01  -3.80205078e+01  -4.09355469e+01  -4.16596680e+01
  -4.01406250e+01  -3.64707031e+01  -3.17294922e+01  -2.59780273e+01
  -1.95444336e+01  -1.20844727e+01  -3.10888672e+00   8.66357422e+00
   2.52065430e+01   4.61533203e+01   6.82250977e+01   8.69628906e+01
   9.68725586e+01   9.30776367e+01   7.28881836e+01   3.78164062e+01
  -5.25390625e+00  -4.67094727e+01  -7.72983398e+01  -9.20766602e+01
  -9.10996094e+01  -7.69609375e+01  -5.53442383e+01  -3.35434570e+01
  -1.69248047e+01  -6.13183594e+00   1.01513672e+00   5.12158203e+00
   7.31103516e+00   9.97412109e+00   1.34077148e+01   1.58603516e+01
   1.65747070e+01   1.55981445e+01   1.33618164e+01   9.94482422e+00
   6.27001953e+00   3.12060547e+00   4.48242188e-01  -1.16455078e+00
  -2.35839844e+00  -3.63574219e+00  -4.21679688e+00  -4.85253906e+00
  -6.29003906e+00  -7.51562500e+00  -6.59375000e+00  -3.71191406e+00
  -7.30957031e-01   3.65478516e+00   1.04013672e+01   1.84223633e+01
   2.60429688e+01   3.27226562e+01   3.95156250e+01   4.56406250e+01
   5.11743164e+01   5.47246094e+01   5.62504883e+01   5.56303711e+01
   5.21562500e+01   4.53750000e+01   3.44277344e+01   2.11772461e+01
   6.51855469e+00  -7.61132812e+00  -2.03984375e+01  -3.06391602e+01
  -3.86611328e+01  -4.42319336e+01  -4.76113281e+01  -4.93925781e+01
  -5.03115234e+01  -5.10112305e+01  -4.95708008e+01  -4.64848633e+01
  -4.21987305e+01  -3.78193359e+01  -3.21743164e+01  -2.47626953e+01
  -1.74355469e+01  -1.15195312e+01  -6.95849609e+00  -2.74707031e+00
   1.48925781e-01   1.07031250e+00   8.95996094e-01   1.58349609e+00
   2.80566406e+00   3.67578125e+00   4.50830078e+00   5.74804688e+00
   6.97265625e+00   6.84472656e+00   6.52734375e+00   6.69531250e+00
   7.06494141e+00   6.85791016e+00   6.45019531e+00   7.07714844e+00
   7.60839844e+00   7.57275391e+00   6.14892578e+00   5.32910156e+00
   4.88867188e+00   3.82031250e+00   2.40478516e+00   1.43896484e+00
   2.86132812e+00   4.12744141e+00   5.54833984e+00   6.88476562e+00
   8.75244141e+00   1.04433594e+01   1.04184570e+01   9.81738281e+00
   8.05957031e+00   6.11474609e+00   3.65771484e+00   8.93066406e-01
  -1.96337891e+00  -4.02685547e+00  -5.05761719e+00  -6.25292969e+00
  -7.13525391e+00  -7.80957031e+00  -7.54296875e+00  -8.56640625e+00
  -9.88574219e+00  -1.01401367e+01  -1.00766602e+01  -9.93603516e+00
  -9.94287109e+00  -8.13964844e+00  -5.23632812e+00  -2.59863281e+00
   7.61718750e-02   2.87109375e+00   6.06591797e+00   9.89648438e+00
   1.33979492e+01   1.72016602e+01   2.09863281e+01   2.48510742e+01
   2.75732422e+01   2.73701172e+01   2.50917969e+01   2.09135742e+01
   1.53784180e+01   8.76123047e+00   1.81054688e+00  -4.60156250e+00]
[ -9.31494141e+00  -8.07519531e+00  -6.15429688e+00  -3.68798828e+00
  -3.08105469e-01   4.51855469e+00   1.02714844e+01   1.56254883e+01
   2.08115234e+01   2.58652344e+01   2.95883789e+01   3.06831055e+01
   2.94331055e+01   2.80278320e+01   2.51772461e+01   2.09438477e+01
   1.53945312e+01   1.01630859e+01   4.66650391e+00  -1.98876953e+00
  -8.82275391e+00  -1.50180664e+01  -1.97475586e+01  -2.45019531e+01
  -2.89038086e+01  -3.20541992e+01  -3.41611328e+01  -3.60786133e+01
  -3.69052734e+01  -3.58535156e+01  -3.20351562e+01  -2.67358398e+01
  -1.97070312e+01  -1.07099609e+01  -2.68554688e-01   1.33706055e+01
   3.07119141e+01   5.10278320e+01   7.11718750e+01   8.73071289e+01
   9.46445312e+01   8.82294922e+01   6.61572266e+01   3.15668945e+01
  -9.15820312e+00  -4.75629883e+01  -7.63481445e+01  -9.04550781e+01
  -8.99716797e+01  -7.82978516e+01  -6.07441406e+01  -4.21113281e+01
  -2.47846680e+01  -1.18168945e+01  -2.60937500e+00   3.83398438e+00
   9.44970703e+00   1.39648438e+01   1.59243164e+01   1.67636719e+01
   1.63867188e+01   1.47260742e+01   1.15332031e+01   7.38769531e+00
   3.50000000e+00  -8.07617188e-01  -5.18408203e+00  -8.30126953e+00
  -9.69042969e+00  -9.98535156e+00  -1.03476562e+01  -9.48876953e+00
  -6.63037109e+00  -3.37744141e+00  -6.38671875e-01   2.67041016e+00
   7.57714844e+00   1.29003906e+01   1.79458008e+01   2.29638672e+01
   2.86914062e+01   3.47285156e+01   4.08496094e+01   4.65834961e+01
   5.11767578e+01   5.48701172e+01   5.72202148e+01   5.69692383e+01
   5.29316406e+01   4.54116211e+01   3.50766602e+01   2.25898438e+01
   7.93945312e+00  -7.25634766e+00  -2.05380859e+01  -3.12807617e+01
  -3.94111328e+01  -4.56245117e+01  -4.90771484e+01  -5.01181641e+01
  -5.01748047e+01  -4.84912109e+01  -4.55815430e+01  -4.09228516e+01
  -3.59619141e+01  -3.06459961e+01  -2.49614258e+01  -2.03833008e+01
  -1.66381836e+01  -1.45009766e+01  -1.20649414e+01  -9.80175781e+00
  -8.22167969e+00  -6.81591797e+00  -5.54492188e+00  -4.16455078e+00
  -4.08300781e+00  -4.36572266e+00  -5.02099609e+00  -6.14355469e+00
  -6.76562500e+00  -6.34130859e+00  -4.53564453e+00  -3.54736328e+00
  -1.33886719e+00   2.84375000e+00   6.98535156e+00   1.10380859e+01
   1.45312500e+01   1.92705078e+01   2.30571289e+01   2.44492188e+01
   2.51293945e+01   2.50156250e+01   2.38686523e+01   2.12480469e+01
   1.82509766e+01   1.58110352e+01   1.31860352e+01   9.48828125e+00
   6.06494141e+00   3.87451172e+00   2.00292969e+00  -3.36914062e-02
  -1.68945312e+00  -2.43408203e+00  -2.89355469e+00  -3.95312500e+00
  -5.26171875e+00  -5.96386719e+00  -6.74267578e+00  -7.01269531e+00
  -6.77246094e+00  -6.41064453e+00  -5.42626953e+00  -4.07031250e+00
  -2.40869141e+00  -7.43164062e-01   2.58789062e-01   1.60498047e+00
   2.76025391e+00   2.55419922e+00   2.09570312e+00   8.68164062e-01
   3.44726562e-01  -3.56933594e-01  -1.02587891e+00  -4.22851562e-01
   5.83984375e-01   1.46484375e+00   2.01416016e+00   1.95898438e+00
   1.75097656e+00   1.00292969e+00  -8.63281250e-01  -1.98291016e+00
  -3.46142578e+00  -4.25537109e+00  -5.14941406e+00  -6.14160156e+00]
[ -6.13671875e+00  -6.46337891e+00  -6.56689453e+00  -5.16455078e+00
  -3.43847656e+00  -1.80419922e+00   2.18261719e-01   4.32812500e+00
   1.02841797e+01   1.50190430e+01   2.00014648e+01   2.48349609e+01
   2.84667969e+01   2.99213867e+01   2.84257812e+01   2.60268555e+01
   2.15458984e+01   1.52963867e+01   8.77880859e+00   1.26416016e+00
  -6.20117188e+00  -1.40546875e+01  -2.06752930e+01  -2.66669922e+01
  -3.23989258e+01  -3.65117188e+01  -3.95107422e+01  -4.10668945e+01
  -4.11943359e+01  -3.91279297e+01  -3.59785156e+01  -3.24746094e+01
  -2.75361328e+01  -2.05947266e+01  -1.27270508e+01  -2.23828125e+00
   1.40219727e+01   3.68159180e+01   6.19931641e+01   8.59970703e+01
   1.04955566e+02   1.11543945e+02   1.00652832e+02   7.24516602e+01
   3.29760742e+01  -1.06674805e+01  -5.04042969e+01  -7.70605469e+01
  -8.69990234e+01  -8.32246094e+01  -7.02441406e+01  -5.37924805e+01
  -3.77729492e+01  -2.55053711e+01  -1.79052734e+01  -1.23291016e+01
  -7.31542969e+00  -1.76757812e+00   3.68115234e+00   8.54736328e+00
   1.19936523e+01   1.31679688e+01   1.26132812e+01   1.06162109e+01
   7.65185547e+00   3.44775391e+00  -3.90136719e-01  -2.71728516e+00
  -4.79492188e+00  -6.31054688e+00  -6.53662109e+00  -5.04589844e+00
  -2.69384766e+00  -4.85351562e-01   2.17919922e+00   4.82470703e+00
   7.00146484e+00   9.22705078e+00   1.17612305e+01   1.47871094e+01
   1.88793945e+01   2.43535156e+01   3.07993164e+01   3.68593750e+01
   4.21669922e+01   4.68173828e+01   5.02138672e+01   5.19667969e+01
   5.18696289e+01   4.98154297e+01   4.53632812e+01   3.82412109e+01
   2.81625977e+01   1.57954102e+01   1.75537109e+00  -1.23178711e+01
  -2.50727539e+01  -3.60927734e+01  -4.43598633e+01  -5.01933594e+01
  -5.33007812e+01  -5.42880859e+01  -5.39438477e+01  -5.15742188e+01
  -4.77490234e+01  -4.23637695e+01  -3.63637695e+01  -3.04160156e+01
  -2.41791992e+01  -1.91152344e+01  -1.53100586e+01  -1.19477539e+01
  -8.01513672e+00  -3.85791016e+00   1.95312500e-03   3.73535156e+00
   7.32714844e+00   9.38427734e+00   9.49414062e+00   9.26318359e+00
   8.52685547e+00   7.87500000e+00   7.58007812e+00   7.17773438e+00
   6.11035156e+00   4.11425781e+00   1.93017578e+00  -6.47949219e-01
  -3.25585938e+00  -4.29638672e+00  -3.37500000e+00  -1.86181641e+00
   1.66015625e-01   2.78710938e+00   5.52343750e+00   7.18554688e+00
   8.09277344e+00   9.01953125e+00   9.17236328e+00   9.46826172e+00
   8.95654297e+00   8.07812500e+00   7.07128906e+00   5.54833984e+00
   4.53125000e+00   2.59570312e+00   7.21191406e-01  -7.49023438e-01
  -2.35888672e+00  -2.74023438e+00  -3.04589844e+00  -2.45068359e+00
  -8.47656250e-01   9.05761719e-01   2.78271484e+00   3.52246094e+00
   4.47119141e+00   4.73242188e+00   4.61914062e+00   4.82861328e+00
   5.44091797e+00   6.07519531e+00   5.94580078e+00   5.55712891e+00
   4.60791016e+00   2.34375000e+00  -1.36718750e+00  -4.13818359e+00
  -6.23828125e+00  -7.87744141e+00  -9.85205078e+00  -9.71337891e+00
  -8.23681641e+00  -8.14892578e+00  -8.01953125e+00  -7.00927734e+00
  -4.32861328e+00  -2.89746094e+00  -1.07568359e+00   2.10498047e+00]
[ -6.30712891e+00  -6.21777344e+00  -6.52880859e+00  -5.92871094e+00
  -3.23046875e+00   8.45214844e-01   5.94042969e+00   1.09116211e+01
   1.60493164e+01   2.01508789e+01   2.27944336e+01   2.49482422e+01
   2.58081055e+01   2.54453125e+01   2.46816406e+01   2.31030273e+01
   2.04624023e+01   1.58754883e+01   1.03920898e+01   3.88916016e+00
  -4.60986328e+00  -1.33105469e+01  -2.17509766e+01  -2.93989258e+01
  -3.66484375e+01  -4.18378906e+01  -4.46694336e+01  -4.59624023e+01
  -4.56621094e+01  -4.41708984e+01  -4.06630859e+01  -3.61972656e+01
  -2.97333984e+01  -2.08964844e+01  -8.24023438e+00   1.00830078e+01
   3.40234375e+01   6.19829102e+01   8.99819336e+01   1.13243652e+02
   1.23949219e+02   1.17141602e+02   9.23139648e+01   5.31611328e+01
   6.58398438e+00  -3.91542969e+01  -7.34536133e+01  -9.13510742e+01
  -9.33208008e+01  -8.39589844e+01  -6.89243164e+01  -5.18208008e+01
  -3.71567383e+01  -2.65615234e+01  -1.97949219e+01  -1.34794922e+01
  -6.35888672e+00   5.16113281e-01   5.90234375e+00   9.82812500e+00
   1.23710938e+01   1.29282227e+01   1.23120117e+01   1.06972656e+01
   9.08935547e+00   7.36523438e+00   5.49853516e+00   2.63720703e+00
  -7.68066406e-01  -3.75292969e+00  -5.95654297e+00  -7.52978516e+00
  -7.50195312e+00  -5.58691406e+00  -3.47314453e+00  -5.91308594e-01
   2.79003906e+00   6.67675781e+00   1.05600586e+01   1.48354492e+01
   2.06396484e+01   2.67412109e+01   3.37250977e+01   4.15571289e+01
   4.89570312e+01   5.52724609e+01   5.93916016e+01   6.07280273e+01
   5.85566406e+01   5.29550781e+01   4.45249023e+01   3.26181641e+01
   1.89965820e+01   5.26318359e+00  -8.72949219e+00  -2.24384766e+01
  -3.50976562e+01  -4.43974609e+01  -5.09326172e+01  -5.58071289e+01
  -5.81743164e+01  -5.77861328e+01  -5.45419922e+01  -4.96259766e+01
  -4.38857422e+01  -3.70537109e+01  -2.95571289e+01  -2.25849609e+01
  -1.64926758e+01  -1.14111328e+01  -6.46191406e+00  -2.41406250e+00
   1.01513672e+00   4.04833984e+00   5.73535156e+00   6.34912109e+00
   5.45312500e+00   4.81103516e+00   3.06738281e+00   1.06884766e+00
   4.15039062e-02  -1.92871094e-01  -1.42578125e-01  -1.05419922e+00
  -3.36425781e-01   1.27978516e+00   2.80566406e+00   3.67285156e+00
   5.57177734e+00   8.78906250e+00   1.05712891e+01   1.09516602e+01
   1.08305664e+01   1.12304688e+01   1.03408203e+01   7.89062500e+00
   5.58105469e+00   3.92724609e+00   2.29589844e+00  -2.37304688e-01
  -2.16210938e+00  -2.74072266e+00  -3.01513672e+00  -3.54931641e+00
  -3.22607422e+00  -1.53222656e+00   3.59375000e-01   1.78564453e+00
   2.76660156e+00   4.11425781e+00   4.16406250e+00   3.04101562e+00
   1.29101562e+00  -1.03515625e+00  -2.65185547e+00  -4.74853516e+00
  -6.04785156e+00  -6.82080078e+00  -7.25390625e+00  -6.69482422e+00
  -5.61816406e+00  -3.74658203e+00  -1.59179688e+00   5.65917969e-01
   2.76513672e+00   4.78662109e+00   5.07470703e+00   4.88574219e+00
   4.71337891e+00   4.97851562e+00   5.20019531e+00   4.57958984e+00
   5.17480469e+00   5.48144531e+00   5.11816406e+00   4.12890625e+00
   3.64550781e+00   3.86181641e+00   3.68164062e+00   3.81982422e+00]
[ -9.89404297e+00  -1.02377930e+01  -8.09082031e+00  -4.86035156e+00
  -1.98730469e+00   1.50048828e+00   5.80908203e+00   1.04394531e+01
   1.38710938e+01   1.68559570e+01   2.00136719e+01   2.23823242e+01
   2.36997070e+01   2.40893555e+01   2.25253906e+01   1.89228516e+01
   1.40249023e+01   7.83105469e+00   3.22265625e-01  -8.24804688e+00
  -1.58105469e+01  -2.18471680e+01  -2.76054688e+01  -3.27495117e+01
  -3.65302734e+01  -3.93554688e+01  -4.21796875e+01  -4.49262695e+01
  -4.65415039e+01  -4.56860352e+01  -4.27548828e+01  -3.73388672e+01
  -2.80986328e+01  -1.61474609e+01  -6.54296875e-02   1.99013672e+01
   4.43666992e+01   7.24985352e+01   9.91254883e+01   1.21205566e+02
   1.30888184e+02   1.23081543e+02   9.74726562e+01   5.68139648e+01
   9.69824219e+00  -3.62031250e+01  -7.10590820e+01  -8.81748047e+01
  -8.96953125e+01  -7.94624023e+01  -6.40463867e+01  -4.75224609e+01
  -3.33217773e+01  -2.37573242e+01  -1.69790039e+01  -1.13618164e+01
  -4.72460938e+00   2.85937500e+00   9.74755859e+00   1.45297852e+01
   1.68242188e+01   1.65039062e+01   1.31689453e+01   7.37939453e+00
   1.43798828e+00  -3.49951172e+00  -7.10009766e+00  -9.37988281e+00
  -9.95458984e+00  -9.59667969e+00  -9.12744141e+00  -8.04003906e+00
  -6.16162109e+00  -3.35058594e+00  -7.57812500e-01   2.54199219e+00
   6.02929688e+00   9.07910156e+00   1.17714844e+01   1.49418945e+01
   1.99907227e+01   2.52944336e+01   3.08530273e+01   3.71372070e+01
   4.35454102e+01   4.86713867e+01   5.07358398e+01   5.15131836e+01
   5.07851562e+01   4.71879883e+01   4.06928711e+01   3.11328125e+01
   2.04423828e+01   7.57910156e+00  -6.09912109e+00  -1.89716797e+01
  -3.09960938e+01  -4.03691406e+01  -4.76801758e+01  -5.17680664e+01
  -5.35292969e+01  -5.42412109e+01  -5.28833008e+01  -4.97827148e+01
  -4.46420898e+01  -3.86665039e+01  -3.27563477e+01  -2.58730469e+01
  -1.84057617e+01  -1.23085938e+01  -8.01416016e+00  -5.14501953e+00
  -2.55175781e+00  -7.96875000e-01  -2.86132812e-01   8.75000000e-01
   2.47705078e+00   4.16162109e+00   5.80371094e+00   7.37841797e+00
   9.37255859e+00   1.03217773e+01   1.01606445e+01   9.45068359e+00
   8.28808594e+00   7.48632812e+00   5.43896484e+00   3.49658203e+00
   2.97021484e+00   3.11083984e+00   3.73193359e+00   3.29736328e+00
   3.74267578e+00   4.86718750e+00   4.53466797e+00   3.67285156e+00
   2.04736328e+00   1.74560547e+00   1.30810547e+00   6.89453125e-01
   1.10693359e+00   2.01367188e+00   3.42626953e+00   3.46289062e+00
   3.70605469e+00   3.15869141e+00   2.05224609e+00   6.89453125e-01
  -4.24316406e-01  -7.66113281e-01  -1.53613281e+00  -1.74853516e+00
  -1.31152344e+00  -3.33984375e-01   3.75488281e-01   9.55566406e-01
   2.40332031e+00   4.02441406e+00   4.51855469e+00   3.93212891e+00
   3.07617188e+00   2.41650391e+00   4.62890625e-01  -2.31884766e+00
  -4.12158203e+00  -5.00097656e+00  -5.50781250e+00  -6.16992188e+00
  -6.29003906e+00  -5.35595703e+00  -4.55664062e+00  -3.89306641e+00
  -3.02246094e+00  -2.04687500e+00  -5.53222656e-01   5.65429688e-01
   8.70605469e-01   3.89160156e-01  -2.74414062e-01  -8.25683594e-01]
[ -6.66406250e+00  -6.47167969e+00  -5.39648438e+00  -3.58349609e+00
  -1.03906250e+00   1.76318359e+00   5.31787109e+00   1.00288086e+01
   1.47636719e+01   1.87636719e+01   2.25717773e+01   2.67622070e+01
   3.00590820e+01   3.06337891e+01   2.91000977e+01   2.77148438e+01
   2.49912109e+01   2.00683594e+01   1.34028320e+01   6.36230469e+00
  -1.31396484e+00  -1.11391602e+01  -2.07514648e+01  -2.94736328e+01
  -3.65185547e+01  -4.24208984e+01  -4.60693359e+01  -4.68857422e+01
  -4.66318359e+01  -4.43588867e+01  -4.11801758e+01  -3.52988281e+01
  -2.76220703e+01  -1.86591797e+01  -6.76318359e+00   9.16259766e+00
   3.05971680e+01   5.56259766e+01   8.12441406e+01   1.03551758e+02
   1.15912598e+02   1.11583496e+02   9.07514648e+01   5.50024414e+01
   9.97070312e+00  -3.57290039e+01  -7.16020508e+01  -8.98696289e+01
  -9.36303711e+01  -8.56577148e+01  -6.93115234e+01  -5.02573242e+01
  -3.38652344e+01  -2.28593750e+01  -1.54531250e+01  -9.85449219e+00
  -5.05078125e+00   3.61328125e-02   5.21972656e+00   9.46875000e+00
   1.27109375e+01   1.46958008e+01   1.47265625e+01   1.33730469e+01
   1.09423828e+01   8.17626953e+00   5.31054688e+00   2.55224609e+00
  -1.17187500e-01  -2.62402344e+00  -4.43066406e+00  -6.25878906e+00
  -7.02343750e+00  -6.59619141e+00  -4.20996094e+00  -1.40917969e+00
   1.63964844e+00   6.41748047e+00   1.14545898e+01   1.64580078e+01
   2.08549805e+01   2.54702148e+01   3.07587891e+01   3.60717773e+01
   4.13359375e+01   4.56953125e+01   4.90351562e+01   5.17265625e+01
   5.23969727e+01   4.99902344e+01   4.43530273e+01   3.64501953e+01
   2.64008789e+01   1.41479492e+01   9.59472656e-01  -1.19414062e+01
  -2.40781250e+01  -3.44340820e+01  -4.23281250e+01  -4.77133789e+01
  -5.11821289e+01  -5.33188477e+01  -5.25087891e+01  -4.95903320e+01
  -4.50620117e+01  -4.02460938e+01  -3.48486328e+01  -2.80634766e+01
  -2.15712891e+01  -1.64516602e+01  -1.28627930e+01  -9.27929688e+00
  -5.49853516e+00  -2.41162109e+00  -1.28417969e-01   2.31250000e+00
   4.72900391e+00   6.54150391e+00   7.20556641e+00   7.41943359e+00
   6.80810547e+00   6.21289062e+00   5.61914062e+00   5.56542969e+00
   6.02490234e+00   5.94726562e+00   6.64208984e+00   6.09619141e+00
   5.81689453e+00   4.89843750e+00   4.27734375e+00   4.60791016e+00
   4.57226562e+00   5.47021484e+00   5.66308594e+00   6.13720703e+00
   5.47558594e+00   3.71826172e+00   2.03369141e+00   9.48242188e-01
   6.54785156e-01   1.33300781e-01   5.32226562e-02   8.80371094e-01
   1.95605469e+00   1.92919922e+00   6.36230469e-01  -8.54492188e-01
  -1.50634766e+00  -1.98730469e+00  -2.35400391e+00  -2.65136719e+00
  -1.47265625e+00   2.19726562e-01   8.86718750e-01   7.46582031e-01
   1.08935547e+00   2.33203125e+00   2.80371094e+00   3.05712891e+00
   3.26611328e+00   3.03955078e+00   8.22753906e-01  -1.79980469e+00
  -3.60986328e+00  -4.84472656e+00  -5.96923828e+00  -5.97607422e+00
  -3.95996094e+00  -2.29931641e+00  -1.54833984e+00  -1.53955078e+00
  -1.24707031e+00  -8.54003906e-01  -1.28613281e+00  -1.03613281e+00
  -1.66308594e+00  -2.26269531e+00  -2.42236328e+00  -3.46191406e+00]
[ -1.18808594e+01  -1.23330078e+01  -1.15786133e+01  -1.07534180e+01
  -9.84082031e+00  -7.63964844e+00  -4.06738281e+00   3.30566406e-01
   6.66113281e+00   1.43481445e+01   2.15190430e+01   2.68613281e+01
   3.17338867e+01   3.53154297e+01   3.58276367e+01   3.40927734e+01
   3.11704102e+01   2.70673828e+01   2.05693359e+01   1.26567383e+01
   4.82910156e+00  -3.67724609e+00  -1.23784180e+01  -2.02617188e+01
  -2.63476562e+01  -3.15566406e+01  -3.61298828e+01  -3.88251953e+01
  -3.89379883e+01  -3.77827148e+01  -3.58603516e+01  -3.12167969e+01
  -2.37294922e+01  -1.48427734e+01  -6.06884766e+00   6.38037109e+00
   2.37153320e+01   4.47602539e+01   6.68173828e+01   8.70512695e+01
   1.01511719e+02   1.01630371e+02   8.51997070e+01   5.31577148e+01
   1.05473633e+01  -3.43476562e+01  -7.23491211e+01  -9.45717773e+01
  -1.00738281e+02  -9.35200195e+01  -7.66557617e+01  -5.56684570e+01
  -3.59018555e+01  -2.11059570e+01  -1.01772461e+01  -8.65234375e-01
   7.00000000e+00   1.30146484e+01   1.73129883e+01   2.12753906e+01
   2.40058594e+01   2.39082031e+01   2.07343750e+01   1.64443359e+01
   1.20922852e+01   6.94531250e+00   9.66308594e-01  -5.09082031e+00
  -8.70800781e+00  -1.04580078e+01  -1.15395508e+01  -1.24467773e+01
  -1.14018555e+01  -8.34082031e+00  -4.92871094e+00  -1.42773438e+00
   3.16699219e+00   8.97900391e+00   1.45019531e+01   2.00678711e+01
   2.55908203e+01   3.10942383e+01   3.59155273e+01   4.04707031e+01
   4.45761719e+01   4.78701172e+01   4.97734375e+01   5.02070312e+01
   4.91318359e+01   4.51923828e+01   3.91479492e+01   3.08115234e+01
   2.14204102e+01   1.04199219e+01  -1.63818359e+00  -1.31943359e+01
  -2.42382812e+01  -3.41010742e+01  -4.27753906e+01  -4.91997070e+01
  -5.32910156e+01  -5.51533203e+01  -5.43564453e+01  -5.10874023e+01
  -4.64350586e+01  -4.10400391e+01  -3.49477539e+01  -2.81010742e+01
  -2.23354492e+01  -1.75395508e+01  -1.30654297e+01  -8.51904297e+00
  -4.01074219e+00  -3.26171875e-01   3.24609375e+00   5.56005859e+00
   7.09521484e+00   7.50244141e+00   6.05078125e+00   3.18945312e+00
   2.15820312e-01  -1.21972656e+00  -2.13378906e+00  -2.10498047e+00
  -5.80078125e-01   2.17529297e+00   4.79492188e+00   6.51562500e+00
   8.00634766e+00   9.07617188e+00   9.64257812e+00   9.77978516e+00
   9.52001953e+00   9.47412109e+00   9.30273438e+00   8.64697266e+00
   7.60107422e+00   6.44384766e+00   5.83984375e+00   4.22900391e+00
   2.11767578e+00  -5.02929688e-02  -1.81201172e+00  -3.10595703e+00
  -4.13427734e+00  -4.18408203e+00  -3.16503906e+00  -9.74121094e-01
   1.22753906e+00   2.89599609e+00   3.86376953e+00   4.45751953e+00
   3.97167969e+00   2.15185547e+00   1.38671875e-01  -2.30224609e+00
  -4.70849609e+00  -6.95654297e+00  -8.57910156e+00  -9.39648438e+00
  -1.04731445e+01  -1.04965820e+01  -9.86816406e+00  -8.47509766e+00
  -6.89843750e+00  -5.01416016e+00  -1.97656250e+00   8.90625000e-01
   3.78955078e+00   6.79638672e+00   1.09448242e+01   1.48359375e+01
   1.82397461e+01   2.20083008e+01   2.57368164e+01   2.78364258e+01
   2.71240234e+01   2.56264648e+01   2.30615234e+01   1.92993164e+01]
[ -5.39453125  -3.09423828  -1.71240234  -0.80566406   0.12744141
   1.30908203   2.70263672   4.64111328   7.74511719  12.50195312
  17.65673828  23.23681641  27.56494141  29.78564453  30.14941406
  27.14404297  22.27929688  15.95703125   9.33154297   2.56298828
  -4.72705078 -11.19482422 -17.55029297 -23.84033203 -29.54736328
 -33.80566406 -36.09912109 -37.25292969 -36.17089844 -33.66308594
 -29.71533203 -24.45947266 -17.95556641  -9.86523438  -0.28076172
  12.81542969  29.32763672  48.80175781  67.7265625   82.09033203
  87.04003906  78.35449219  55.84228516  21.14501953 -18.92871094
 -55.58544922 -80.91992188 -91.22802734 -87.26269531 -72.265625
 -51.42724609 -30.29785156 -13.53466797  -2.22412109   4.72265625
   9.17480469  12.11914062  13.84960938  15.85009766  18.09912109
  18.85205078  17.40039062  14.45947266  11.7734375    7.97216797
   2.71191406  -1.84228516  -4.35498047  -5.14111328  -6.97558594
  -8.19628906  -7.8671875   -6.8046875   -5.86621094  -5.10400391
  -2.20166016   2.07666016   7.45117188  13.890625    20.68994141
  27.74169922  34.91259766  41.38525391  46.80126953  50.06542969
  51.98535156  52.64111328  50.91699219  46.27099609  38.52441406
  29.28369141  19.00976562   7.41162109  -5.42382812 -16.80322266
 -25.93505859 -33.87792969 -41.07861328 -45.89892578 -47.21484375
 -46.84863281 -45.79492188 -42.51171875 -37.82617188 -32.73925781
 -28.81542969 -25.54980469 -21.67919922 -19.18896484 -16.83984375
 -14.87304688 -12.20361328  -8.95410156  -6.86669922  -3.67578125
   0.15722656   3.73779297   6.27490234   7.77783203   9.33837891
   9.48681641   7.87890625   6.32421875   5.73876953   5.15771484
   4.94384766   4.87109375   5.84863281   6.21777344   5.36962891
   5.18066406   4.76074219   4.57128906   4.10742188   3.77099609
   4.1796875    3.91552734   3.51708984   3.06494141   2.54101562
   2.56103516   2.21875      2.45947266   3.00146484   3.15527344
   3.07470703   2.96240234   3.11376953   2.48144531   1.69824219
   1.26367188   0.30664062  -1.28857422  -2.80517578  -3.828125
  -4.74072266  -4.82861328  -3.39794922  -1.94970703  -1.52246094
  -1.27148438  -1.41699219  -3.02490234  -6.55517578  -9.75585938
 -11.35351562 -12.00292969 -11.640625   -10.34179688  -6.88134766
  -2.58935547   1.4375       4.93164062   8.72167969  13.52685547
  18.25732422  22.68212891  26.48779297  29.98486328  31.0859375 ]
[ -6.46435547e+00  -4.22802734e+00  -2.05029297e+00   1.16015625e+00
   3.37500000e+00   5.45166016e+00   7.42675781e+00   9.68261719e+00
   1.25327148e+01   1.49458008e+01   1.77470703e+01   2.02490234e+01
   2.33046875e+01   2.57763672e+01   2.65654297e+01   2.54819336e+01
   2.23969727e+01   1.75571289e+01   1.03701172e+01   2.39648438e+00
  -5.61914062e+00  -1.32900391e+01  -1.98759766e+01  -2.52050781e+01
  -2.94619141e+01  -3.31220703e+01  -3.63574219e+01  -3.77202148e+01
  -3.76474609e+01  -3.60986328e+01  -3.24389648e+01  -2.58994141e+01
  -1.60566406e+01  -4.96533203e+00   8.11132812e+00   2.37109375e+01
   4.23178711e+01   6.11665039e+01   7.61826172e+01   8.43139648e+01
   8.18540039e+01   6.61450195e+01   3.67519531e+01  -1.19677734e+00
  -3.90024414e+01  -6.97202148e+01  -8.77055664e+01  -9.05639648e+01
  -8.00717773e+01  -6.11259766e+01  -4.08491211e+01  -2.28388672e+01
  -9.65869141e+00  -7.26562500e-01   5.61279297e+00   1.02812500e+01
   1.50830078e+01   1.97231445e+01   2.41665039e+01   2.61933594e+01
   2.44536133e+01   2.05800781e+01   1.56972656e+01   1.14184570e+01
   6.99609375e+00   3.00537109e+00   9.67285156e-01  -5.21972656e-01
  -2.79003906e+00  -6.27099609e+00  -9.80273438e+00  -1.18666992e+01
  -1.26489258e+01  -1.21088867e+01  -9.20654297e+00  -5.04248047e+00
   5.90820312e-02   4.68505859e+00   8.83837891e+00   1.44311523e+01
   1.98208008e+01   2.52104492e+01   3.04589844e+01   3.64653320e+01
   4.23662109e+01   4.54140625e+01   4.67075195e+01   4.67363281e+01
   4.47939453e+01   3.99667969e+01   3.26665039e+01   2.38286133e+01
   1.37426758e+01   1.76513672e+00  -1.03496094e+01  -2.12167969e+01
  -3.10312500e+01  -3.86171875e+01  -4.40258789e+01  -4.63603516e+01
  -4.70317383e+01  -4.68769531e+01  -4.48071289e+01  -4.15537109e+01
  -3.76713867e+01  -3.31323242e+01  -2.73496094e+01  -2.14130859e+01
  -1.63149414e+01  -1.17001953e+01  -6.86279297e+00  -3.32666016e+00
  -1.51660156e+00   9.91210938e-02   2.17089844e+00   3.55566406e+00
   3.73876953e+00   4.46875000e+00   5.65771484e+00   6.28369141e+00
   6.53271484e+00   7.14453125e+00   7.72119141e+00   7.62744141e+00
   7.57421875e+00   8.61132812e+00   8.86865234e+00   8.12011719e+00
   7.49511719e+00   6.80322266e+00   5.90820312e+00   4.19628906e+00
   3.35205078e+00   3.73730469e+00   3.91845703e+00   4.58544922e+00
   4.46484375e+00   4.03564453e+00   3.06640625e+00   1.47998047e+00
   9.68750000e-01   8.91113281e-01   1.46972656e+00   1.73339844e+00
   2.33935547e+00   3.01464844e+00   2.62158203e+00   3.83300781e-01
  -1.54101562e+00  -1.95800781e+00  -1.82666016e+00  -1.39550781e+00
  -1.10498047e+00  -7.95898438e-02   3.00781250e-01  -2.93945312e-01
  -2.02783203e+00  -3.91894531e+00  -5.07519531e+00  -4.80273438e+00
  -3.20947266e+00  -1.78662109e+00  -2.42675781e-01   1.24267578e+00
   2.64501953e+00   2.74267578e+00   1.94433594e+00   2.14550781e+00
   3.01464844e+00   3.70019531e+00   3.90771484e+00   4.21533203e+00
   4.09179688e+00   2.67285156e+00   4.72167969e-01  -1.74804688e+00
  -2.95703125e+00  -3.41357422e+00  -3.17431641e+00  -2.47949219e+00]
[ -6.97558594  -5.94384766  -5.16113281  -3.92236328  -2.18994141
   0.24804688   3.08154297   5.96044922   9.86523438  14.21630859
  18.69775391  22.43017578  24.71289062  26.32666016  26.43115234
  25.08300781  21.13232422  15.87402344  10.82666016   5.20019531
  -0.93164062  -8.05126953 -14.03466797 -19.13134766 -23.89257812
 -27.82275391 -30.89892578 -32.13818359 -32.35009766 -31.39404297
 -30.06347656 -28.09716797 -24.15234375 -18.77539062 -11.44726562
  -0.84765625  15.21289062  36.04980469  58.42285156  79.37646484
  94.09570312  96.22558594  82.296875    53.85595703  15.88769531
 -24.93505859 -59.73876953 -80.63134766 -86.29931641 -79.96044922
 -66.19189453 -49.42626953 -33.82080078 -23.1953125  -16.23535156
 -10.56103516  -4.97851562   1.23291016   6.76269531  11.55175781
  14.91699219  17.00097656  17.22949219  15.33447266  12.58789062
  10.48681641   8.18994141   4.18554688   0.60644531  -1.62011719
  -3.62597656  -6.18847656  -7.55224609  -7.09326172  -5.78710938
  -4.56835938  -1.83056641   2.57666016   6.75146484  11.35498047
  16.44970703  23.04443359  29.46044922  34.97509766  41.19335938
  46.89746094  51.37744141  52.84863281  52.64160156  50.37646484
  44.39355469  35.34033203  24.00927734  12.04736328  -1.47265625
 -14.90771484 -26.72509766 -36.42529297 -43.75146484 -48.97460938
 -51.31054688 -51.48242188 -50.08935547 -47.02978516 -42.90722656
 -38.20996094 -33.38916016 -27.79589844 -21.87255859 -16.73193359
 -12.10107422  -7.86328125  -3.83984375  -0.59423828   2.19873047
   4.70947266   5.99462891   6.54003906   6.31054688   4.65625      2.35644531
   0.39208984   0.38623047   0.92822266   1.86230469   4.05273438
   6.02490234   7.47021484   7.21875      6.83837891   6.50488281
   5.58251953   5.15869141   5.10253906   5.95751953   6.62060547
   7.03417969   7.67431641   7.76464844   7.55664062   6.09033203
   4.68408203   3.40185547   1.48291016   0.46240234  -0.85693359
  -1.26660156  -1.32617188  -1.12207031  -0.34619141  -0.38574219
   0.18261719   1.02783203   1.65722656   1.78808594   2.23535156
   2.86083984   3.0546875    2.21289062   1.05761719   0.32910156
  -0.34960938  -0.75097656  -0.61083984   0.55224609   1.40722656
   1.58984375   0.61279297  -0.33105469  -0.96826172  -1.74462891
  -2.00195312  -2.08300781  -1.36474609  -0.76513672  -1.16308594
  -1.76416016  -2.06103516  -2.03710938  -2.20605469]
[ -9.81298828e+00  -1.16259766e+01  -1.20024414e+01  -1.11674805e+01
  -9.36181641e+00  -5.45263672e+00  -1.56250000e-01   6.04541016e+00
   1.22929688e+01   1.92187500e+01   2.61591797e+01   3.12739258e+01
   3.37084961e+01   3.48959961e+01   3.43232422e+01   3.10839844e+01
   2.57690430e+01   1.89169922e+01   1.24062500e+01   4.70898438e+00
  -3.69775391e+00  -1.22890625e+01  -2.06865234e+01  -2.74213867e+01
  -3.36357422e+01  -3.85234375e+01  -4.19018555e+01  -4.32768555e+01
  -4.30878906e+01  -4.19941406e+01  -3.93872070e+01  -3.51743164e+01
  -2.85307617e+01  -2.02114258e+01  -9.22314453e+00   5.83740234e+00
   2.55371094e+01   4.87124023e+01   7.23833008e+01   9.43032227e+01
   1.08474609e+02   1.08097656e+02   9.11552734e+01   6.02343750e+01
   2.01069336e+01  -2.27968750e+01  -5.94624023e+01  -8.21894531e+01
  -8.93017578e+01  -8.40717773e+01  -7.06362305e+01  -5.41132812e+01
  -3.89111328e+01  -2.65756836e+01  -1.79545898e+01  -1.14726562e+01
  -5.71191406e+00   1.05957031e-01   6.41748047e+00   1.12612305e+01
   1.42866211e+01   1.50957031e+01   1.37265625e+01   1.14907227e+01
   8.52734375e+00   5.27685547e+00   2.45166016e+00   7.58300781e-01
  -1.12792969e-01  -1.72851562e+00  -4.26660156e+00  -6.18603516e+00
  -7.19726562e+00  -7.72460938e+00  -7.50781250e+00  -5.44824219e+00
  -1.30322266e+00   3.39257812e+00   8.42089844e+00   1.39897461e+01
   2.01005859e+01   2.67114258e+01   3.27773438e+01   3.90732422e+01
   4.47519531e+01   4.90737305e+01   5.19311523e+01   5.27675781e+01
   5.18789062e+01   4.73613281e+01   4.07558594e+01   3.25268555e+01
   2.26933594e+01   1.10976562e+01  -1.79541016e+00  -1.32397461e+01
  -2.41372070e+01  -3.34658203e+01  -4.11225586e+01  -4.62929688e+01
  -4.83154297e+01  -4.85512695e+01  -4.67875977e+01  -4.42045898e+01
  -4.01440430e+01  -3.53398438e+01  -3.08125000e+01  -2.58310547e+01
  -2.06157227e+01  -1.51933594e+01  -1.13959961e+01  -8.34570312e+00
  -5.01171875e+00  -2.48388672e+00  -9.45800781e-01  -1.92871094e-01
   1.78759766e+00   3.08496094e+00   3.33642578e+00   2.79687500e+00
   2.35644531e+00   2.42675781e+00   1.58349609e+00   2.21582031e+00
   2.64111328e+00   3.97753906e+00   5.52783203e+00   6.57128906e+00
   7.03271484e+00   6.47167969e+00   7.54492188e+00   8.68359375e+00
   9.05859375e+00   8.90478516e+00   9.71826172e+00   1.05053711e+01
   9.28564453e+00   7.13671875e+00   5.15283203e+00   3.85449219e+00
   2.02050781e+00  -2.59765625e-01  -1.97265625e+00  -2.80957031e+00
  -3.13916016e+00  -3.21630859e+00  -2.61083984e+00  -1.25927734e+00
   2.14843750e-01   8.85742188e-01   9.79003906e-01   3.29101562e-01
  -8.10546875e-02  -5.41015625e-01  -7.05566406e-01  -4.71679688e-01
   6.20117188e-02   8.64746094e-01   2.39746094e-01  -2.82226562e-01
  -8.40332031e-01  -1.78076172e+00  -2.21289062e+00  -2.15087891e+00
  -1.69482422e+00  -1.50292969e+00  -1.62890625e+00  -1.34912109e+00
  -1.41943359e+00  -1.56396484e+00  -9.37011719e-01  -5.30273438e-01
   2.72949219e-01   1.45166016e+00   2.19726562e+00   2.12109375e+00
   1.46777344e+00   1.41406250e+00   8.35449219e-01  -9.27734375e-03]
[ -11.88378906  -11.98095703  -10.43359375   -8.25830078   -5.20458984
   -0.63085938    4.50683594    9.41503906   14.18994141   18.984375
   24.3828125    30.10888672   34.03710938   35.60595703   34.84179688
   32.07910156   26.80664062   18.75439453    9.86083984    0.80957031
   -7.88720703  -16.87060547  -25.16943359  -32.02880859  -37.42626953
  -41.53564453  -44.18896484  -44.16845703  -42.52636719  -39.74560547
  -35.61962891  -29.67822266  -22.48242188  -14.88232422   -4.95263672
    9.55517578   29.25732422   52.828125     76.91455078   97.89550781
  109.37207031  105.21972656   83.53564453   47.26123047    4.16552734
  -38.35839844  -71.25439453  -88.68408203  -90.31982422  -79.70263672
  -62.74072266  -43.84082031  -28.04492188  -16.75048828   -9.66455078
   -5.06933594   -1.86767578    0.58398438    3.98925781    6.95703125
    9.54638672   10.65234375   10.99707031   10.56445312    8.59960938
    6.07226562    2.7265625     0.58349609   -1.17919922   -2.19189453
   -3.16015625   -4.12744141   -4.19775391   -4.54199219   -4.09765625
   -3.24169922   -0.94238281    3.80078125    9.18847656   15.75439453
   22.65673828   29.50732422   35.95800781   40.37841797   44.44921875
   46.91796875   47.65869141   47.16113281   44.65527344   40.60400391
   34.66699219   26.91748047   17.87695312    8.33544922   -1.50976562
  -11.94873047  -22.67724609  -32.00488281  -39.58349609  -46.57861328
  -51.65332031  -53.41796875  -51.76416016  -47.89013672  -42.82275391
  -36.13330078  -28.58349609  -21.55224609  -15.70410156  -11.18164062
   -7.21777344   -4.29394531   -2.14111328   -0.18457031    0.76367188
    1.16845703    1.04589844    1.25341797    1.16992188    0.53173828
    1.12890625    2.55224609    4.3203125     5.71435547    7.56396484
    9.47802734   10.02099609    9.90234375    9.60644531    9.1640625
    7.5703125     5.50976562    3.96142578    2.61767578    1.25097656
    0.50830078    0.75830078    1.87304688    2.77880859    3.15234375
    3.40869141    2.90917969    1.81103516    0.28613281   -0.43261719
   -0.16943359    0.13671875    0.37158203    1.15185547    1.70458984
    1.85839844    1.67724609    1.82373047    2.17333984    1.74316406
    1.65625       0.92919922   -0.30371094   -2.48291016   -3.87207031
   -4.18359375   -4.17822266   -3.23876953   -1.56201172    1.31103516
    3.35107422    4.26171875    4.53222656    4.74755859    4.22412109
    2.96435547    1.48779297    0.46435547   -0.41503906   -2.19970703
   -3.86181641   -5.05078125   -5.12255859   -4.93994141   -5.03271484]
[ -7.24267578e+00  -6.68505859e+00  -6.33496094e+00  -5.75390625e+00
  -4.45019531e+00  -2.94287109e+00  -2.50000000e-01   3.58984375e+00
   8.96289062e+00   1.52734375e+01   2.13901367e+01   2.69794922e+01
   3.15380859e+01   3.47905273e+01   3.53598633e+01   3.34150391e+01
   3.00498047e+01   2.53608398e+01   1.87187500e+01   9.83105469e+00
   1.69921875e-01  -9.33642578e+00  -1.85488281e+01  -2.75703125e+01
  -3.50356445e+01  -4.05942383e+01  -4.40551758e+01  -4.59946289e+01
  -4.65419922e+01  -4.53525391e+01  -4.25771484e+01  -3.74858398e+01
  -2.99477539e+01  -2.04511719e+01  -7.59033203e+00   1.07827148e+01
   3.38989258e+01   6.05815430e+01   8.67641602e+01   1.08170898e+02
   1.17311035e+02   1.08884277e+02   8.34404297e+01   4.29350586e+01
  -5.24121094e+00  -5.15214844e+01  -8.54511719e+01  -1.01700195e+02
  -1.01299805e+02  -8.80942383e+01  -6.73237305e+01  -4.51777344e+01
  -2.67817383e+01  -1.39150391e+01  -6.43701172e+00  -1.12060547e+00
   2.48486328e+00   5.71435547e+00   9.68115234e+00   1.28813477e+01
   1.51157227e+01   1.49067383e+01   1.37441406e+01   1.17773438e+01
   7.85693359e+00   3.22216797e+00  -1.01123047e+00  -3.23632812e+00
  -4.13427734e+00  -5.00537109e+00  -4.57714844e+00  -3.13769531e+00
  -6.27441406e-01   1.58935547e+00   2.76025391e+00   4.64013672e+00
   6.10107422e+00   8.34619141e+00   1.12143555e+01   1.41845703e+01
   1.87895508e+01   2.39848633e+01   3.01479492e+01   3.55927734e+01
   3.92968750e+01   4.29301758e+01   4.48149414e+01   4.50317383e+01
   4.37329102e+01   4.11210938e+01   3.75903320e+01   3.13164062e+01
   2.29858398e+01   1.29643555e+01   1.21289062e+00  -1.12822266e+01
  -2.37954102e+01  -3.45351562e+01  -4.22202148e+01  -4.66723633e+01
  -4.83461914e+01  -4.73989258e+01  -4.41552734e+01  -3.96450195e+01
  -3.59804688e+01  -3.27011719e+01  -2.91113281e+01  -2.53500977e+01
  -2.19165039e+01  -1.87792969e+01  -1.39658203e+01  -9.26123047e+00
  -5.31787109e+00  -2.84423828e+00  -1.08984375e+00   6.93847656e-01
   1.64257812e+00   2.46484375e+00   3.69628906e+00   6.16845703e+00
   9.31005859e+00   1.12207031e+01   1.15322266e+01   1.05009766e+01
   8.92431641e+00   6.60351562e+00   3.72705078e+00   1.67480469e+00
   9.56542969e-01   2.10546875e+00   3.38085938e+00   4.02685547e+00
   3.82470703e+00   4.68701172e+00   5.87841797e+00   5.85644531e+00
   6.15820312e+00   6.29931641e+00   6.97509766e+00   5.64404297e+00
   3.15283203e+00   1.18115234e+00  -1.40380859e+00  -2.52392578e+00
  -3.01513672e+00  -2.71923828e+00  -1.82519531e+00  -8.60351562e-01
  -4.15039062e-02  -5.80078125e-01  -1.15771484e+00  -1.07617188e+00
  -8.87695312e-01  -1.23046875e+00  -8.96972656e-01   4.68750000e-01
   1.37597656e+00   1.57861328e+00   1.61621094e+00   1.53417969e+00
   5.99609375e-01  -9.90234375e-01  -2.56591797e+00  -3.81884766e+00
  -4.71533203e+00  -4.81445312e+00  -4.09423828e+00  -2.11816406e+00
   3.84277344e-01   2.36816406e+00   3.80126953e+00   4.85742188e+00
   5.14111328e+00   3.16894531e+00   6.07910156e-01  -1.54394531e+00
  -3.92187500e+00  -6.62695312e+00  -8.39599609e+00  -8.45556641e+00]
[  -5.72412109   -8.20166016  -10.26660156  -11.46044922  -10.99853516
   -9.33544922   -6.75097656   -3.52685547    0.796875      5.2265625
   10.23730469   16.08251953   21.71044922   27.05712891   31.31445312
   34.55078125   35.30566406   32.88623047   28.32763672   21.76123047
   13.16357422    3.25048828   -8.11767578  -19.71679688  -29.86767578
  -39.12158203  -46.71826172  -51.99755859  -53.83984375  -52.27197266
  -48.86083984  -42.89892578  -34.54833984  -24.21240234  -11.64111328
    3.65380859   23.53369141   48.83496094   77.21875     103.44873047
  121.01074219  123.63671875  107.13037109   71.20019531   21.66113281
  -32.10253906  -78.06005859 -106.29980469 -114.45605469 -105.53955078
  -86.07421875  -61.20898438  -37.47265625  -20.23046875   -9.07421875
   -2.16796875    3.21533203    7.69042969   11.16943359   14.21142578
   16.01757812   16.55322266   15.81689453   13.00683594    9.61376953
    6.50097656    3.58154297    1.21435547   -0.59667969   -0.26904297
    0.81884766    1.52197266    2.63818359    3.7265625     5.31982422
    6.49902344    7.63037109    9.0546875    10.91064453   14.32275391
   17.68212891   21.37646484   25.57666016   30.34277344   34.45898438
   37.04589844   39.84423828   41.30957031   41.24902344   39.33984375
   36.36328125   31.82666016   24.31103516   15.68847656    5.52490234
   -5.26171875  -16.58691406  -27.31835938  -36.06591797  -43.00585938
  -47.55761719  -49.49511719  -48.44189453  -45.57666016  -41.35449219
  -36.56982422  -31.00683594  -25.98974609  -22.56542969  -19.25244141
  -16.26708984  -12.90234375   -9.79199219   -6.32080078   -2.16259766
    1.63330078    4.79833984    6.79150391    8.22705078    8.58300781
    8.65478516    8.86914062    9.38525391    9.89599609    9.609375
    9.67578125    9.13964844    7.85644531    5.93945312    3.80664062
    2.40380859    1.60791016    1.22705078    1.53710938    2.25195312
    3.48632812    5.07958984    5.37695312    5.56591797    4.86523438
    3.65039062    2.35400391    0.34375      -0.96191406   -2.47460938
   -3.48925781   -3.51904297   -3.92724609   -4.47753906   -4.26757812
   -3.05175781   -2.12109375   -2.41992188   -2.03710938   -0.94726562
   -1.01611328   -1.9375       -2.49804688   -1.80273438   -1.46679688
   -1.57910156   -1.78759766   -2.44238281   -3.29882812   -4.83935547
   -6.73535156   -8.46826172   -9.34082031   -8.79199219   -7.1640625
   -5.18701172   -2.078125      1.9296875     6.39648438   10.51220703
   14.43505859   19.5859375    25.0625       29.80175781   33.13378906]
[ -1.24023438e+01  -9.78320312e+00  -6.95068359e+00  -4.13037109e+00
  -1.44433594e+00   2.08349609e+00   5.72558594e+00   8.86181641e+00
   1.31943359e+01   1.78232422e+01   2.25136719e+01   2.64545898e+01
   2.94570312e+01   3.11406250e+01   3.07998047e+01   2.85644531e+01
   2.48559570e+01   1.92749023e+01   1.28955078e+01   7.01660156e+00
   7.71484375e-01  -5.51074219e+00  -1.22050781e+01  -1.82700195e+01
  -2.42871094e+01  -3.12832031e+01  -3.65454102e+01  -3.99985352e+01
  -4.10234375e+01  -3.99975586e+01  -3.60458984e+01  -2.94165039e+01
  -2.21708984e+01  -1.38911133e+01  -4.77050781e+00   7.40380859e+00
   2.31611328e+01   4.30683594e+01   6.57573242e+01   8.62504883e+01
   9.92612305e+01   9.78681641e+01   7.92822266e+01   4.44663086e+01
  -1.28613281e+00  -4.83525391e+01  -8.60063477e+01  -1.07054688e+02
  -1.09875977e+02  -9.68730469e+01  -7.39350586e+01  -4.77968750e+01
  -2.47758789e+01  -6.83251953e+00   4.95458984e+00   1.17514648e+01
   1.56889648e+01   1.80278320e+01   1.90058594e+01   1.85712891e+01
   1.73579102e+01   1.49892578e+01   1.18696289e+01   8.67968750e+00
   5.75341797e+00   2.25488281e+00  -9.03808594e-01  -3.19531250e+00
  -4.30859375e+00  -4.56445312e+00  -4.45800781e+00  -3.22070312e+00
  -1.65380859e+00   8.79882812e-01   3.34130859e+00   5.18652344e+00
   8.00537109e+00   1.14965820e+01   1.56064453e+01   1.96406250e+01
   2.41591797e+01   2.93569336e+01   3.40444336e+01   3.83002930e+01
   4.18784180e+01   4.42241211e+01   4.56083984e+01   4.62358398e+01
   4.52441406e+01   4.16899414e+01   3.63530273e+01   2.93496094e+01
   1.97636719e+01   8.20458984e+00  -3.84228516e+00  -1.51162109e+01
  -2.56157227e+01  -3.44091797e+01  -4.11323242e+01  -4.67719727e+01
  -5.08115234e+01  -5.29360352e+01  -5.29370117e+01  -5.13125000e+01
  -4.76831055e+01  -4.10332031e+01  -3.27832031e+01  -2.45449219e+01
  -1.76406250e+01  -1.20341797e+01  -7.20263672e+00  -4.10107422e+00
  -2.89746094e+00  -2.69091797e+00  -1.78222656e+00  -5.90820312e-01
  -3.63769531e-01  -6.67480469e-01  -9.76562500e-04   1.39013672e+00
   1.85937500e+00   2.57812500e+00   4.15527344e+00   6.56884766e+00
   7.97363281e+00   8.85791016e+00   9.96240234e+00   1.03408203e+01
   9.75439453e+00   8.05078125e+00   6.89062500e+00   6.34570312e+00
   6.20068359e+00   6.09375000e+00   6.63085938e+00   7.71484375e+00
   8.10205078e+00   7.80175781e+00   7.67822266e+00   8.05957031e+00
   7.55615234e+00   6.63281250e+00   5.81005859e+00   4.52734375e+00
   1.76611328e+00  -2.19433594e+00  -5.48876953e+00  -8.38427734e+00
  -1.09316406e+01  -1.27182617e+01  -1.32905273e+01  -1.26889648e+01
  -1.15996094e+01  -1.03232422e+01  -8.71972656e+00  -7.32324219e+00
  -5.76464844e+00  -3.86181641e+00  -2.27197266e+00  -2.14355469e-01
   2.57177734e+00   7.09033203e+00   1.16362305e+01   1.58413086e+01
   2.06166992e+01   2.47929688e+01   2.72968750e+01   2.72055664e+01
   2.69838867e+01   2.60732422e+01   2.29057617e+01   1.83056641e+01
   1.32651367e+01   7.57714844e+00  -3.42773438e-01  -9.61328125e+00
  -1.81303711e+01  -2.58139648e+01  -3.27817383e+01  -3.79487305e+01]
[-10.12597656 -11.94238281 -11.41162109 -10.26806641  -7.98779297
  -5.61572266  -2.36376953   2.5078125    6.80029297  11.59130859
  17.0078125   23.64941406  29.34960938  31.99267578  32.52978516
  31.28955078  27.92871094  21.89013672  14.75146484   7.82080078
   1.6796875   -4.2890625  -10.68310547 -16.84179688 -22.33789062
 -27.11083984 -31.59326172 -35.81689453 -37.75537109 -37.45654297
 -35.86279297 -32.53808594 -26.50439453 -17.50292969  -8.05810547
   3.03271484  18.01269531  36.75878906  55.93212891  72.89453125
  85.31396484  87.62841797  75.19580078  48.26806641  12.60009766
 -26.15283203 -61.04296875 -83.99414062 -90.72070312 -83.55712891
 -68.57910156 -49.83740234 -30.92529297 -15.34423828  -5.37109375
   0.87792969   6.5703125   12.63134766  18.39599609  21.81640625
  23.68017578  23.57763672  20.34863281  14.00732422   6.16601562
  -0.10253906  -4.67333984  -7.94921875  -8.91015625  -7.86083984
  -5.46337891  -3.77001953  -3.09960938  -2.18261719  -0.85253906
   0.91943359   3.12353516   6.3984375   11.09521484  16.57177734
  21.73144531  26.96679688  31.58544922  36.50390625  40.38623047
  42.54492188  43.58886719  43.38525391  42.20800781  38.28955078
  33.18554688  27.03076172  19.26757812   9.45458984  -1.63916016
 -12.50341797 -23.54199219 -33.50830078 -41.20507812 -45.27783203
 -46.59179688 -46.5078125  -44.46679688 -40.93798828 -36.35400391
 -32.30126953 -28.32910156 -23.33154297 -18.53271484 -14.60058594
 -11.50927734  -8.68505859  -6.42382812  -4.75292969  -2.90185547
  -0.82617188   0.69433594   2.17382812   3.65966797   4.484375
   4.50146484   4.86865234   5.66064453   6.07714844   6.33251953
   6.77587891   7.59814453   7.11572266   6.84863281   7.02294922
   7.09814453   7.39550781   7.18310547   7.52490234   6.90771484
   5.76123047   4.90625      3.86669922   3.18505859   3.0625       3.49951172
   3.90771484   3.37841797   2.52832031   1.89355469   0.5234375
  -1.41357422  -3.22167969  -3.74804688  -3.61621094  -3.97119141
  -3.64599609  -2.39453125  -0.72802734   0.81933594   1.35498047
   2.40966797   3.10791016   3.81738281   3.88964844   2.88574219
   2.23876953   0.47460938  -1.79101562  -4.93164062  -8.07373047
 -10.61865234 -12.64013672 -12.94873047 -12.14160156 -10.15527344
  -7.32568359  -4.21777344  -0.20947266   3.73828125   8.00976562
  12.22851562  16.85791016  22.1796875   26.49951172]
[ -1.04482422e+01  -9.03173828e+00  -6.87207031e+00  -3.94873047e+00
   2.01660156e-01   5.51416016e+00   1.06186523e+01   1.51635742e+01
   1.96103516e+01   2.28046875e+01   2.48540039e+01   2.50136719e+01
   2.33618164e+01   2.13613281e+01   1.90683594e+01   1.65888672e+01
   1.27377930e+01   9.01318359e+00   5.74365234e+00   8.96972656e-01
  -4.47265625e+00  -9.46289062e+00  -1.34726562e+01  -1.73339844e+01
  -2.08295898e+01  -2.29272461e+01  -2.46333008e+01  -2.55424805e+01
  -2.51435547e+01  -2.33969727e+01  -2.05068359e+01  -1.64067383e+01
  -1.06391602e+01  -3.60644531e+00   4.82177734e+00   1.48535156e+01
   2.77949219e+01   4.23208008e+01   5.46508789e+01   6.15478516e+01
   5.95214844e+01   4.77397461e+01   2.47529297e+01  -6.04882812e+00
  -3.75019531e+01  -6.33168945e+01  -7.81064453e+01  -8.02866211e+01
  -7.15224609e+01  -5.52910156e+01  -3.61806641e+01  -1.82260742e+01
  -4.02148438e+00   5.10839844e+00   1.15053711e+01   1.58452148e+01
   1.79916992e+01   1.81782227e+01   1.74438477e+01   1.57587891e+01
   1.31938477e+01   1.01542969e+01   7.49511719e+00   5.95410156e+00
   4.26123047e+00   3.31640625e+00   1.97070312e+00   5.10253906e-01
  -8.97949219e-01  -2.10693359e+00  -3.38037109e+00  -4.63037109e+00
  -4.75830078e+00  -3.96386719e+00  -2.08007812e+00  -3.85742188e-01
   2.61425781e+00   6.32812500e+00   1.04189453e+01   1.52656250e+01
   2.03066406e+01   2.64985352e+01   3.27631836e+01   3.86982422e+01
   4.36889648e+01   4.68671875e+01   4.76904297e+01   4.59707031e+01
   4.17163086e+01   3.52421875e+01   2.61767578e+01   1.56220703e+01
   4.65478516e+00  -6.37500000e+00  -1.66650391e+01  -2.57412109e+01
  -3.23608398e+01  -3.74111328e+01  -4.03579102e+01  -4.17167969e+01
  -4.17382812e+01  -4.01420898e+01  -3.69580078e+01  -3.24228516e+01
  -2.78535156e+01  -2.30883789e+01  -1.86650391e+01  -1.52021484e+01
  -1.30322266e+01  -1.17119141e+01  -1.05839844e+01  -8.85595703e+00
  -6.41894531e+00  -4.12988281e+00  -2.40771484e+00  -1.70898438e-02
   2.04833984e+00   2.95996094e+00   3.42285156e+00   4.41699219e+00
   6.25341797e+00   7.14257812e+00   8.34619141e+00   9.29199219e+00
   9.20019531e+00   8.49267578e+00   7.58935547e+00   6.83056641e+00
   5.41259766e+00   4.51513672e+00   4.74951172e+00   5.42968750e+00
   5.63867188e+00   5.64013672e+00   6.08886719e+00   6.18164062e+00
   5.40429688e+00   3.91796875e+00   2.32470703e+00   1.22216797e+00
   3.63281250e-01   2.10449219e-01   9.38476562e-01   1.88818359e+00
   2.71875000e+00   2.65185547e+00   2.25878906e+00   6.47949219e-01
  -1.99023438e+00  -4.08789062e+00  -5.38378906e+00  -5.70751953e+00
  -6.43994141e+00  -5.51953125e+00  -4.09277344e+00  -3.18994141e+00
  -2.76269531e+00  -2.64257812e+00  -1.65087891e+00  -2.10009766e+00
  -2.84179688e+00  -3.41210938e+00  -3.41455078e+00  -3.16601562e+00
  -2.80664062e+00  -1.82373047e+00  -3.66210938e-02   1.96484375e+00
   3.06445312e+00   3.55957031e+00   3.51904297e+00   4.04443359e+00
   4.46142578e+00   4.35644531e+00   4.58447266e+00   5.76513672e+00
   6.36669922e+00   5.78417969e+00   4.95751953e+00   5.37060547e+00]
[ -5.52978516e+00  -6.18798828e+00  -6.63330078e+00  -5.69140625e+00
  -3.68994141e+00  -3.26171875e-01   3.50439453e+00   7.66015625e+00
   1.19794922e+01   1.63793945e+01   2.06518555e+01   2.42299805e+01
   2.70336914e+01   2.82548828e+01   2.79951172e+01   2.58769531e+01
   2.17119141e+01   1.59467773e+01   9.54394531e+00   3.21679688e+00
  -3.29882812e+00  -1.07744141e+01  -1.80766602e+01  -2.47368164e+01
  -3.03730469e+01  -3.49619141e+01  -3.79487305e+01  -3.78823242e+01
  -3.58637695e+01  -3.17407227e+01  -2.72236328e+01  -2.26787109e+01
  -1.69482422e+01  -1.03642578e+01  -2.21875000e+00   7.67285156e+00
   2.22431641e+01   4.19707031e+01   6.28559570e+01   8.07573242e+01
   9.07470703e+01   8.88906250e+01   7.18281250e+01   4.01987305e+01
  -9.08203125e-02  -4.02138672e+01  -7.10512695e+01  -8.78198242e+01
  -8.95649414e+01  -7.80483398e+01  -5.89716797e+01  -3.84228516e+01
  -2.15009766e+01  -9.32714844e+00  -1.38574219e+00   2.54052734e+00
   4.89599609e+00   6.82177734e+00   8.62451172e+00   1.01992188e+01
   1.06103516e+01   1.01372070e+01   9.35205078e+00   8.03222656e+00
   6.24218750e+00   3.77392578e+00   1.59033203e+00  -2.65136719e-01
  -2.53564453e+00  -4.34521484e+00  -5.45507812e+00  -6.55761719e+00
  -7.14746094e+00  -6.08496094e+00  -3.13134766e+00   4.69726562e-01
   4.30664062e+00   9.37304688e+00   1.47758789e+01   1.92260742e+01
   2.30195312e+01   2.69062500e+01   3.09736328e+01   3.41630859e+01
   3.73793945e+01   4.10913086e+01   4.38325195e+01   4.48632812e+01
   4.43354492e+01   4.34233398e+01   3.98217773e+01   3.28593750e+01
   2.35966797e+01   1.29594727e+01   1.76806641e+00  -1.11962891e+01
  -2.39345703e+01  -3.45000000e+01  -4.27045898e+01  -4.80839844e+01
  -5.15693359e+01  -5.22724609e+01  -5.00800781e+01  -4.61420898e+01
  -4.06357422e+01  -3.51376953e+01  -2.91914062e+01  -2.31396484e+01
  -1.77421875e+01  -1.37724609e+01  -1.09790039e+01  -8.65332031e+00
  -6.96630859e+00  -5.86718750e+00  -5.46728516e+00  -5.00439453e+00
  -4.60937500e+00  -2.87109375e+00  -1.12744141e+00   4.67285156e-01
   2.97949219e+00   5.62841797e+00   8.69140625e+00   9.82666016e+00
   1.10249023e+01   1.23691406e+01   1.24653320e+01   1.26958008e+01
   1.24868164e+01   1.24975586e+01   1.19887695e+01   1.15117188e+01
   1.13618164e+01   1.04248047e+01   8.54003906e+00   6.59228516e+00
   4.57617188e+00   1.65185547e+00  -9.06738281e-01  -2.49755859e+00
  -2.87207031e+00  -3.01367188e+00  -3.00878906e+00  -2.09716797e+00
  -8.15917969e-01   1.19628906e-01   7.58789062e-01   1.45117188e+00
   2.14550781e+00   2.67773438e+00   1.58837891e+00   2.19726562e-02
  -1.32763672e+00  -2.47802734e+00  -3.26660156e+00  -3.72216797e+00
  -2.88671875e+00  -7.76855469e-01   6.80175781e-01   1.46630859e+00
   1.77099609e+00   1.77246094e+00   1.56884766e+00  -4.91699219e-01
  -2.04003906e+00  -2.79882812e+00  -2.82324219e+00  -2.86718750e+00
  -2.13037109e+00  -2.32910156e-01   1.24169922e+00   2.36083984e+00
   2.66210938e+00   2.37304688e+00   3.47167969e-01  -1.78662109e+00
  -2.76220703e+00  -2.77050781e+00  -2.31542969e+00  -1.23242188e+00]
[ -1.18032227e+01  -1.18530273e+01  -1.10278320e+01  -9.50976562e+00
  -6.77050781e+00  -2.16406250e+00   3.04638672e+00   8.85937500e+00
   1.49096680e+01   2.17626953e+01   2.72280273e+01   2.95859375e+01
   3.11406250e+01   3.14052734e+01   3.01098633e+01   2.63125000e+01
   2.13632812e+01   1.68793945e+01   1.10053711e+01   4.00195312e+00
  -3.33740234e+00  -1.07382812e+01  -1.86777344e+01  -2.60737305e+01
  -3.30957031e+01  -3.95410156e+01  -4.45874023e+01  -4.76176758e+01
  -4.70703125e+01  -4.48413086e+01  -4.01430664e+01  -3.25356445e+01
  -2.31806641e+01  -1.21611328e+01   2.04101562e-01   1.63652344e+01
   3.73461914e+01   6.19116211e+01   8.65698242e+01   1.06488281e+02
   1.14571777e+02   1.05745605e+02   7.99541016e+01   3.98754883e+01
  -7.41992188e+00  -5.26430664e+01  -8.49248047e+01  -9.89594727e+01
  -9.82739258e+01  -8.66220703e+01  -6.78911133e+01  -4.75878906e+01
  -2.98691406e+01  -1.74301758e+01  -8.12890625e+00   3.80859375e-02
   6.46679688e+00   1.20468750e+01   1.55488281e+01   1.70595703e+01
   1.73457031e+01   1.55229492e+01   1.30727539e+01   9.41162109e+00
   5.37792969e+00   2.06250000e+00  -8.64257812e-01  -2.66308594e+00
  -3.94042969e+00  -4.37500000e+00  -3.88183594e+00  -3.02441406e+00
  -2.26074219e+00  -9.54589844e-01   1.91894531e-01   2.01708984e+00
   4.40185547e+00   7.42578125e+00   1.15126953e+01   1.55024414e+01
   2.12221680e+01   2.73242188e+01   3.31386719e+01   3.85952148e+01
   4.31850586e+01   4.75000000e+01   4.97377930e+01   4.94829102e+01
   4.72402344e+01   4.30268555e+01   3.72851562e+01   2.87197266e+01
   1.81977539e+01   7.05273438e+00  -4.63085938e+00  -1.64023438e+01
  -2.79023438e+01  -3.70996094e+01  -4.38657227e+01  -4.86923828e+01
  -5.05107422e+01  -4.98500977e+01  -4.73476562e+01  -4.45234375e+01
  -4.08378906e+01  -3.53730469e+01  -2.97973633e+01  -2.45205078e+01
  -1.97216797e+01  -1.44956055e+01  -9.63232422e+00  -6.36572266e+00
  -3.85986328e+00  -1.58398438e+00   2.33886719e-01   2.23925781e+00
   3.15185547e+00   3.68066406e+00   3.41650391e+00   3.17626953e+00
   4.38916016e+00   4.91259766e+00   5.53759766e+00   6.15722656e+00
   7.45751953e+00   7.98974609e+00   6.60986328e+00   5.04443359e+00
   4.36669922e+00   4.33447266e+00   4.09765625e+00   4.30761719e+00
   5.43798828e+00   6.73632812e+00   6.85107422e+00   6.67822266e+00
   6.67333984e+00   6.55468750e+00   5.88476562e+00   4.41455078e+00
   3.85546875e+00   2.98193359e+00   1.58935547e+00   2.16308594e-01
  -1.21240234e+00  -1.18798828e+00  -1.02294922e+00  -9.80957031e-01
  -1.12841797e+00  -1.59570312e+00  -1.27978516e+00  -1.89355469e+00
  -2.95947266e+00  -3.17480469e+00  -2.82617188e+00  -2.30517578e+00
  -2.49951172e+00  -1.97607422e+00  -7.18261719e-01   1.11816406e-01
   1.37744141e+00   2.59277344e+00   3.91748047e+00   4.70458984e+00
   4.47705078e+00   4.02783203e+00   3.11962891e+00   2.65039062e+00
   2.61962891e+00   1.52880859e+00   3.33496094e-01  -8.16406250e-01
  -1.95556641e+00  -3.08349609e+00  -4.64062500e+00  -4.31054688e+00
  -3.01123047e+00  -1.42675781e+00  -1.18652344e-01   2.36328125e-01]
[ -1.26987305e+01  -1.20952148e+01  -1.07622070e+01  -9.34619141e+00
  -6.32617188e+00  -1.52587891e+00   3.39257812e+00   8.66503906e+00
   1.47202148e+01   2.08012695e+01   2.56049805e+01   2.90268555e+01
   3.14257812e+01   3.23784180e+01   3.13110352e+01   2.87265625e+01
   2.48266602e+01   1.98417969e+01   1.40546875e+01   7.33544922e+00
  -3.60839844e-01  -9.03369141e+00  -1.80429688e+01  -2.72724609e+01
  -3.59042969e+01  -4.28110352e+01  -4.70751953e+01  -4.84604492e+01
  -4.71230469e+01  -4.32729492e+01  -3.84570312e+01  -3.29047852e+01
  -2.60678711e+01  -1.76499023e+01  -6.53613281e+00   9.17089844e+00
   3.08974609e+01   5.68696289e+01   8.27866211e+01   1.04621582e+02
   1.15062012e+02   1.08664062e+02   8.45590820e+01   4.69052734e+01
   1.95458984e+00  -4.23535156e+01  -7.57285156e+01  -9.30717773e+01
  -9.41093750e+01  -8.33022461e+01  -6.58593750e+01  -4.71367188e+01
  -3.09135742e+01  -1.84316406e+01  -1.05498047e+01  -5.46728516e+00
  -3.91113281e-01   5.16455078e+00   9.68359375e+00   1.23403320e+01
   1.41894531e+01   1.48876953e+01   1.36123047e+01   1.07739258e+01
   8.02343750e+00   6.14550781e+00   4.20507812e+00   2.06689453e+00
   8.10546875e-02  -1.41357422e+00  -2.60107422e+00  -3.56640625e+00
  -3.45996094e+00  -1.66699219e+00   8.58886719e-01   3.57080078e+00
   5.93554688e+00   8.79248047e+00   1.19790039e+01   1.43706055e+01
   1.74145508e+01   2.16782227e+01   2.68359375e+01   3.13139648e+01
   3.54130859e+01   4.03496094e+01   4.44052734e+01   4.63857422e+01
   4.61284180e+01   4.41699219e+01   3.95742188e+01   3.16274414e+01
   2.13637695e+01   1.01416016e+01  -6.25488281e-01  -1.06860352e+01
  -2.03291016e+01  -2.91972656e+01  -3.61323242e+01  -4.08930664e+01
  -4.45043945e+01  -4.71967773e+01  -4.77421875e+01  -4.56152344e+01
  -4.23808594e+01  -3.89409180e+01  -3.49550781e+01  -3.10200195e+01
  -2.62241211e+01  -2.11865234e+01  -1.64160156e+01  -1.16855469e+01
  -7.18212891e+00  -2.45166016e+00   5.49804688e-01   2.41992188e+00
   4.67675781e+00   6.45410156e+00   7.06396484e+00   7.83300781e+00
   9.05371094e+00   9.56298828e+00   8.89208984e+00   8.08691406e+00
   8.20898438e+00   7.19091797e+00   5.94628906e+00   5.02001953e+00
   4.19091797e+00   3.47851562e+00   2.33593750e+00   1.96679688e+00
   1.62011719e+00   1.88671875e+00   2.49804688e+00   3.04052734e+00
   3.61035156e+00   4.20751953e+00   5.24267578e+00   5.64843750e+00
   6.04541016e+00   6.53417969e+00   6.36767578e+00   5.72460938e+00
   4.17382812e+00   2.74414062e+00   9.22851562e-01  -7.43164062e-01
  -1.19775391e+00  -1.82861328e+00  -2.14306641e+00  -2.13720703e+00
  -2.52392578e+00  -3.62695312e+00  -5.14355469e+00  -6.07910156e+00
  -6.34082031e+00  -6.92138672e+00  -6.53906250e+00  -5.19140625e+00
  -2.87646484e+00  -2.89062500e-01   2.13623047e+00   4.29541016e+00
   5.66406250e+00   5.71923828e+00   4.36376953e+00   2.67041016e+00
   3.08105469e-01  -1.75781250e+00  -2.80859375e+00  -2.06591797e+00
  -1.16308594e+00  -7.77832031e-01  -2.40234375e-01   6.41113281e-01
   7.91503906e-01  -2.39257812e-02   1.02539062e-01   6.57714844e-01]
[ -1.10556641e+01  -1.25644531e+01  -1.34838867e+01  -1.28593750e+01
  -9.58740234e+00  -6.12255859e+00  -2.33056641e+00   2.50390625e+00
   8.33691406e+00   1.47133789e+01   2.02319336e+01   2.53710938e+01
   3.03378906e+01   3.39150391e+01   3.51489258e+01   3.34716797e+01
   3.00664062e+01   2.48115234e+01   1.75551758e+01   8.76367188e+00
  -5.56640625e-02  -8.09863281e+00  -1.62353516e+01  -2.45366211e+01
  -3.18422852e+01  -3.70795898e+01  -4.09619141e+01  -4.38378906e+01
  -4.46645508e+01  -4.21728516e+01  -3.78759766e+01  -3.25522461e+01
  -2.61293945e+01  -1.75493164e+01  -6.46972656e+00   7.33935547e+00
   2.52792969e+01   4.75415039e+01   7.24155273e+01   9.49619141e+01
   1.09095215e+02   1.08660156e+02   9.13056641e+01   5.85322266e+01
   1.48745117e+01  -3.12949219e+01  -7.03139648e+01  -9.33920898e+01
  -9.89711914e+01  -9.12255859e+01  -7.41186523e+01  -5.25170898e+01
  -3.25107422e+01  -1.76962891e+01  -8.27294922e+00  -1.44921875e+00
   3.53271484e+00   5.99121094e+00   9.04541016e+00   1.12202148e+01
   1.22802734e+01   1.20532227e+01   1.02929688e+01   8.67626953e+00
   5.31347656e+00   2.15234375e+00  -1.77734375e-01  -2.16601562e+00
  -3.35009766e+00  -4.36328125e+00  -4.50830078e+00  -4.49169922e+00
  -4.49609375e+00  -3.91601562e+00  -2.76367188e+00  -6.28906250e-01
   2.06054688e+00   5.56933594e+00   9.55126953e+00   1.34101562e+01
   1.79624023e+01   2.31166992e+01   2.86572266e+01   3.36796875e+01
   3.84458008e+01   4.35683594e+01   4.75512695e+01   4.98164062e+01
   4.94008789e+01   4.65712891e+01   4.13803711e+01   3.36997070e+01
   2.41235352e+01   1.23183594e+01   6.02050781e-01  -9.79443359e+00
  -1.92368164e+01  -2.82993164e+01  -3.61948242e+01  -4.09936523e+01
  -4.36411133e+01  -4.52373047e+01  -4.57919922e+01  -4.46596680e+01
  -4.19160156e+01  -3.86962891e+01  -3.52807617e+01  -3.10664062e+01
  -2.54365234e+01  -1.90444336e+01  -1.25654297e+01  -7.00292969e+00
  -2.83447266e+00  -1.15722656e-01   1.38085938e+00   1.78417969e+00
   9.81445312e-01   3.30078125e-01   1.45751953e+00   3.39306641e+00
   4.70361328e+00   5.93017578e+00   7.38623047e+00   8.51660156e+00
   8.09716797e+00   6.64062500e+00   5.51416016e+00   4.66406250e+00
   3.74902344e+00   3.07861328e+00   3.05224609e+00   3.77294922e+00
   4.24707031e+00   4.16943359e+00   4.66699219e+00   4.84375000e+00
   4.53417969e+00   4.43457031e+00   4.62255859e+00   5.22314453e+00
   4.85205078e+00   4.96972656e+00   4.88476562e+00   3.81152344e+00
   2.42724609e+00   2.49511719e-01  -1.51611328e+00  -3.64306641e+00
  -4.82226562e+00  -5.11328125e+00  -5.22753906e+00  -4.01855469e+00
  -2.59863281e+00  -7.37304688e-01   3.46191406e-01   9.08203125e-01
   1.68945312e+00   1.97070312e+00   2.14746094e+00   1.83984375e+00
   1.76708984e+00   1.70312500e+00   1.34326172e+00   6.64062500e-01
  -4.15039062e-02  -6.33300781e-01  -9.18945312e-01  -5.64453125e-01
   3.24218750e-01   1.36230469e+00   1.94140625e+00   2.10400391e+00
   1.18017578e+00  -4.61914062e-01  -2.67968750e+00  -4.94873047e+00
  -6.41406250e+00  -7.52441406e+00  -7.59521484e+00  -7.57617188e+00]
[ -5.44482422e+00  -4.42187500e+00  -2.29638672e+00  -5.15625000e-01
   9.43359375e-01   2.07568359e+00   3.52783203e+00   6.29931641e+00
   9.31640625e+00   1.31240234e+01   1.76987305e+01   2.25673828e+01
   2.67177734e+01   2.92504883e+01   3.04379883e+01   3.01362305e+01
   2.78491211e+01   2.32006836e+01   1.73007812e+01   1.01430664e+01
   1.79589844e+00  -7.96044922e+00  -1.79848633e+01  -2.74379883e+01
  -3.65395508e+01  -4.36767578e+01  -4.87094727e+01  -5.07021484e+01
  -4.96000977e+01  -4.54077148e+01  -3.86796875e+01  -3.09116211e+01
  -2.17382812e+01  -1.18696289e+01  -6.64062500e-02   1.50776367e+01
   3.57416992e+01   6.14960938e+01   8.78330078e+01   1.09341797e+02
   1.18451172e+02   1.10378906e+02   8.32797852e+01   4.04638672e+01
  -1.00747070e+01  -5.70302734e+01  -8.99272461e+01  -1.03860840e+02
  -1.00956055e+02  -8.64331055e+01  -6.54726562e+01  -4.41684570e+01
  -2.71953125e+01  -1.68764648e+01  -1.07475586e+01  -5.72705078e+00
  -6.04003906e-01   4.47998047e+00   8.60595703e+00   1.21391602e+01
   1.46650391e+01   1.47822266e+01   1.24848633e+01   9.63037109e+00
   7.34765625e+00   5.25537109e+00   3.08935547e+00   1.76757812e+00
   1.78710938e+00   8.22753906e-01  -7.48535156e-01  -1.76562500e+00
  -2.11181641e+00  -1.64062500e+00  -1.29199219e+00   1.54785156e-01
   2.28173828e+00   4.80273438e+00   8.53564453e+00   1.30849609e+01
   1.86655273e+01   2.53139648e+01   3.29721680e+01   4.03183594e+01
   4.58002930e+01   4.99433594e+01   5.32802734e+01   5.46425781e+01
   5.23823242e+01   4.75136719e+01   4.10122070e+01   3.26767578e+01
   2.13818359e+01   8.15722656e+00  -4.28466797e+00  -1.60395508e+01
  -2.68818359e+01  -3.66499023e+01  -4.35068359e+01  -4.78359375e+01
  -5.11923828e+01  -5.26137695e+01  -5.16313477e+01  -4.86391602e+01
  -4.52539062e+01  -4.12792969e+01  -3.56352539e+01  -2.96069336e+01
  -2.42202148e+01  -1.98110352e+01  -1.53173828e+01  -1.03579102e+01
  -6.15332031e+00  -2.25097656e+00   1.41894531e+00   5.25244141e+00
   8.30664062e+00   9.94726562e+00   1.09916992e+01   1.10908203e+01
   1.02060547e+01   8.59912109e+00   6.97412109e+00   5.96972656e+00
   5.38818359e+00   5.49072266e+00   6.22851562e+00   7.27929688e+00
   8.35644531e+00   8.85009766e+00   8.68164062e+00   7.82421875e+00
   6.91455078e+00   5.98193359e+00   4.80810547e+00   3.57812500e+00
   2.09375000e+00   4.41894531e-01  -1.17871094e+00  -2.23291016e+00
  -2.84960938e+00  -2.84912109e+00  -2.34326172e+00  -1.08300781e+00
   8.10546875e-02   5.91308594e-01   7.94921875e-01   6.99218750e-01
   1.14062500e+00   1.35449219e+00   1.14892578e+00   3.32519531e-01
  -3.53515625e-01  -7.43164062e-01  -1.39843750e+00  -1.95800781e+00
  -1.98388672e+00  -1.38671875e+00  -6.88964844e-01  -1.01562500e+00
  -2.05126953e+00  -3.42041016e+00  -4.39892578e+00  -4.58105469e+00
  -4.67431641e+00  -3.96142578e+00  -3.13867188e+00  -1.81982422e+00
  -1.25732422e+00  -1.93554688e+00  -3.57714844e+00  -5.03808594e+00
  -5.25146484e+00  -5.92138672e+00  -6.33593750e+00  -5.37792969e+00
  -2.40087891e+00   1.32031250e+00   5.30566406e+00   1.07221680e+01]
[  -3.47363281   -3.62353516   -3.05712891   -2.33007812   -0.44775391
    1.92480469    5.40966797    8.69238281   11.28710938   14.46484375
   17.52246094   20.27490234   22.01220703   23.40087891   24.8671875
   24.74267578   22.54736328   18.8515625    14.7890625     9.92431641
    3.42529297   -3.49169922  -10.0078125   -15.94775391  -22.69042969
  -29.60302734  -34.88378906  -38.50341797  -40.70458984  -41.55664062
  -39.70068359  -35.0234375   -27.82861328  -19.13330078   -7.98242188
    6.96191406   25.99560547   48.70751953   71.50830078   91.04101562
  101.12597656   96.70703125   76.36767578   40.69433594   -3.98925781
  -48.67578125  -82.57177734  -99.92138672 -101.77783203  -89.52246094
  -68.18994141  -44.22363281  -24.06445312   -9.52685547    1.55419922
    9.21289062   14.43798828   18.84033203   22.71582031   24.52978516
   23.72265625   21.01074219   16.96435547   11.77685547    6.25292969
    1.31689453   -2.60644531   -5.14501953   -6.33740234   -7.14257812
   -7.81542969   -7.51367188   -6.51269531   -4.91210938   -3.078125
   -0.61035156    3.44042969    8.2265625    13.09570312   17.71777344
   22.68017578   29.00634766   34.27929688   38.57470703   42.74267578
   46.25244141   48.921875     48.45410156   46.29833984   42.87792969
   36.86914062   28.62646484   18.07373047    7.01611328   -4.28955078
  -16.3671875   -27.38769531  -36.30712891  -42.85791016  -47.32519531
  -49.69042969  -49.50634766  -47.75195312  -44.90283203  -41.49462891
  -36.73583984  -31.25488281  -25.98779297  -20.75878906  -15.45263672
  -10.71972656   -7.70410156   -5.76025391   -3.95751953   -2.43164062
   -2.234375     -1.16113281    0.51660156    2.21484375    4.14697266
    5.85009766    7.76367188    8.52001953    8.45996094    7.93945312
    6.29248047    4.63085938    3.67333984    2.578125      1.97998047
    2.43847656    4.01464844    5.42578125    5.69140625    6.90869141
    8.30664062    8.60888672    8.46044922    8.61865234    9.171875
    8.49072266    6.84472656    5.10595703    3.06494141    1.171875
   -0.27246094   -1.46728516   -1.99707031   -1.83642578   -1.82470703
   -2.44189453   -3.32421875   -3.48583984   -3.70068359   -4.03417969
   -3.67431641   -3.50585938   -3.58496094   -3.78417969   -3.97167969
   -4.67138672   -6.23632812   -7.23779297   -8.08398438   -8.77490234
   -8.78271484   -8.02441406   -6.19238281   -3.75390625   -0.63476562
    1.87988281    4.23193359    7.34521484   11.11474609   14.27197266
   17.02490234   20.29638672   22.81982422   24.08398438   23.92480469]
[ -5.63671875  -8.91162109 -11.42089844 -12.89697266 -12.36425781
  -9.01171875  -3.93798828   2.36621094   8.43115234  14.81152344
  20.35449219  23.98681641  25.93164062  26.77636719  26.82275391
  25.77246094  23.40283203  19.98730469  15.13085938   8.90869141
   1.5546875   -7.00537109 -14.71923828 -21.8984375  -27.65576172
 -31.33007812 -33.22949219 -33.14404297 -32.57080078 -30.44042969
 -27.23095703 -23.67431641 -18.92138672 -11.96972656  -2.67773438
   8.25976562  21.94873047  38.61328125  56.37402344  70.16455078
  76.96728516  74.54345703  59.88769531  33.68798828  -1.39501953
 -36.79980469 -66.09667969 -84.64648438 -88.60693359 -80.12109375
 -62.64550781 -42.56640625 -23.28027344  -7.37451172   2.85742188
   8.09912109  11.05908203  13.53613281  14.98144531  15.25976562
  14.87255859  15.11376953  14.30566406  12.54785156  10.36523438
   8.21679688   5.80908203   2.89501953   0.42041016  -1.74462891
  -2.85498047  -3.14257812  -3.32519531  -3.69384766  -4.05664062
  -3.66259766  -3.26416016  -2.13330078   1.90429688   8.41357422
  16.38134766  24.70703125  32.85449219  40.10205078  44.78613281
  46.62744141  46.90039062  45.28271484  42.42529297  38.3359375
  32.78076172  26.07470703  17.70898438   8.40625     -2.00292969
 -12.96484375 -22.83740234 -31.11572266 -37.54736328 -42.04101562
 -44.10400391 -44.22070312 -43.64990234 -42.17773438 -39.90234375
 -36.36669922 -32.49267578 -28.24462891 -22.81640625 -17.03515625
 -11.46435547  -7.43457031  -4.08203125  -1.34521484   0.47607422
   1.91015625   2.6875       3.96289062   5.01074219   6.01757812
   6.45361328   6.55029297   7.06005859   7.19384766   7.24023438
   7.08642578   7.11181641   6.58886719   5.21728516   4.02539062
   3.76708984   4.06201172   4.38623047   5.01025391   6.10205078
   6.32714844   5.77880859   4.73291016   3.59130859   2.45605469
   1.51464844   1.75976562   2.06640625   2.00292969   1.93066406
   1.61669922   1.00878906  -0.29345703  -1.99755859  -2.78613281
  -2.91259766  -2.42480469  -1.3125       0.54541016   2.87841797
   4.16894531   4.45800781   4.39990234   3.25488281   0.90429688
  -1.89404297  -4.40234375  -6.23632812  -8.44824219  -9.41308594
  -8.60302734  -6.44921875  -3.6328125   -1.09570312   2.50439453
   5.01708984   6.1796875    6.05029297   5.19628906   4.60644531
   2.72412109   1.01220703  -0.95947266  -3.28808594  -5.53076172]
[ -8.21191406e+00  -6.20019531e+00  -3.48925781e+00  -1.86962891e+00
  -6.23046875e-01   8.87207031e-01   2.81640625e+00   4.43261719e+00
   6.49365234e+00   9.55810547e+00   1.26752930e+01   1.55698242e+01
   1.83540039e+01   2.12392578e+01   2.32143555e+01   2.38271484e+01
   2.36015625e+01   2.20966797e+01   1.87993164e+01   1.36098633e+01
   6.56787109e+00  -1.50927734e+00  -9.80371094e+00  -1.79833984e+01
  -2.50742188e+01  -3.04897461e+01  -3.35751953e+01  -3.44155273e+01
  -3.40107422e+01  -3.15341797e+01  -2.86137695e+01  -2.43920898e+01
  -1.84462891e+01  -1.05253906e+01  -8.51074219e-01   1.05615234e+01
   2.58959961e+01   4.27827148e+01   5.85258789e+01   6.95292969e+01
   7.41474609e+01   6.84072266e+01   4.96977539e+01   2.11699219e+01
  -1.23862305e+01  -4.47099609e+01  -7.03461914e+01  -8.39130859e+01
  -8.33701172e+01  -7.24711914e+01  -5.52397461e+01  -3.54868164e+01
  -1.77934570e+01  -3.60107422e+00   5.33349609e+00   1.08662109e+01
   1.41997070e+01   1.59233398e+01   1.71987305e+01   1.66914062e+01
   1.62587891e+01   1.52197266e+01   1.33437500e+01   1.03427734e+01
   6.79492188e+00   3.45703125e+00  -5.31250000e-01  -3.59667969e+00
  -5.77587891e+00  -6.39794922e+00  -5.91748047e+00  -4.81787109e+00
  -2.80566406e+00  -1.82617188e+00  -7.30957031e-01  -2.24609375e-02
   2.74902344e-01   1.61669922e+00   3.85253906e+00   8.71191406e+00
   1.49702148e+01   2.25244141e+01   3.03618164e+01   3.69794922e+01
   4.25239258e+01   4.58833008e+01   4.71855469e+01   4.64790039e+01
   4.47275391e+01   4.17246094e+01   3.66694336e+01   2.93002930e+01
   1.98496094e+01   8.59716797e+00  -3.86523438e+00  -1.59755859e+01
  -2.62563477e+01  -3.42290039e+01  -3.93491211e+01  -4.15000000e+01
  -4.16147461e+01  -4.07104492e+01  -3.97695312e+01  -3.80478516e+01
  -3.57915039e+01  -3.29501953e+01  -2.96445312e+01  -2.57988281e+01
  -2.10385742e+01  -1.60117188e+01  -1.15449219e+01  -8.76220703e+00
  -6.38134766e+00  -4.00927734e+00  -2.84179688e+00  -2.11523438e+00
  -1.33349609e+00   8.81835938e-01   3.42382812e+00   5.00927734e+00
   7.18457031e+00   8.74755859e+00   9.70898438e+00   9.79492188e+00
   8.54003906e+00   7.57666016e+00   6.04882812e+00   4.50585938e+00
   3.24169922e+00   2.07421875e+00   1.86328125e+00   1.72851562e+00
   2.01074219e+00   2.79833984e+00   3.93164062e+00   4.68945312e+00
   5.27343750e+00   5.99951172e+00   6.87207031e+00   7.58544922e+00
   7.41308594e+00   6.84375000e+00   6.17480469e+00   5.43750000e+00
   4.11083984e+00   2.20898438e+00   6.30371094e-01  -3.90625000e-03
  -1.22705078e+00  -2.75927734e+00  -3.70751953e+00  -3.86328125e+00
  -3.87890625e+00  -4.03857422e+00  -2.94677734e+00  -1.92333984e+00
  -1.89208984e+00  -2.70800781e+00  -3.28857422e+00  -3.39550781e+00
  -3.81494141e+00  -3.57226562e+00  -2.47851562e+00  -9.12597656e-01
   5.58593750e-01   8.42285156e-01   6.12304688e-01  -2.89062500e-01
  -8.55957031e-01  -1.04492188e+00  -1.47070312e+00  -1.01513672e+00
  -8.00781250e-02   1.80566406e+00   2.87451172e+00   3.46435547e+00
   4.22656250e+00   4.79736328e+00   4.79345703e+00   3.40234375e+00]
[ -6.43408203e+00  -7.45654297e+00  -8.48974609e+00  -8.36718750e+00
  -6.79541016e+00  -3.62011719e+00   5.31738281e-01   6.22998047e+00
   1.28457031e+01   1.88066406e+01   2.37666016e+01   2.76547852e+01
   2.99282227e+01   2.98901367e+01   2.76777344e+01   2.41635742e+01
   1.95756836e+01   1.39326172e+01   7.46777344e+00   1.02734375e+00
  -5.54052734e+00  -1.17031250e+01  -1.75107422e+01  -2.30751953e+01
  -2.67241211e+01  -2.87827148e+01  -2.98886719e+01  -2.98095703e+01
  -2.81982422e+01  -2.45156250e+01  -2.08896484e+01  -1.71230469e+01
  -1.08422852e+01  -3.57812500e+00   4.18652344e+00   1.39038086e+01
   2.75375977e+01   4.35439453e+01   5.74741211e+01   6.70048828e+01
   6.95253906e+01   6.01000977e+01   3.76049805e+01   6.29394531e+00
  -2.80078125e+01  -5.76562500e+01  -7.78188477e+01  -8.37778320e+01
  -7.58286133e+01  -5.98085938e+01  -4.03222656e+01  -2.28359375e+01
  -9.14208984e+00  -5.40527344e-01   2.99755859e+00   4.92675781e+00
   7.02392578e+00   1.00620117e+01   1.31030273e+01   1.53203125e+01
   1.68579102e+01   1.61044922e+01   1.29833984e+01   7.77539062e+00
   2.10205078e+00  -2.60205078e+00  -6.19824219e+00  -8.04785156e+00
  -8.06103516e+00  -6.01269531e+00  -3.27636719e+00  -8.25195312e-01
   1.27539062e+00   3.30566406e+00   5.61328125e+00   7.94628906e+00
   1.03696289e+01   1.30039062e+01   1.61694336e+01   2.06655273e+01
   2.51240234e+01   2.95463867e+01   3.37563477e+01   3.72978516e+01
   3.99951172e+01   4.10634766e+01   4.16752930e+01   4.07846680e+01
   3.91494141e+01   3.69985352e+01   3.33725586e+01   2.71889648e+01
   1.85068359e+01   8.86621094e+00  -2.27832031e+00  -1.40537109e+01
  -2.45463867e+01  -3.26118164e+01  -3.88901367e+01  -4.38349609e+01
  -4.63891602e+01  -4.74150391e+01  -4.77490234e+01  -4.64526367e+01
  -4.32500000e+01  -3.83959961e+01  -3.31826172e+01  -2.65043945e+01
  -1.93510742e+01  -1.35117188e+01  -9.04492188e+00  -5.51220703e+00
  -2.13671875e+00  -7.17285156e-01  -2.70507812e-01   4.69726562e-01
