496
430
428
459
494
501
526
570
558
551
563
561
525
504
546
552
539
545
546
516
518
560
555
501
469
505
506
510
529
529
483
484
532
523
488
462
446
473
478
494
526
528
488
456
457
506
585
624
548
451
398
370
410
459
447
395
364
373
385
439
481
486
496
550
570
496
457
474
517
530
480
439
431
437
441
488
571
615
600
568
531
455
412
398
401
416
413
421
440
468
484
508
544
565
530
458
427
444
460
463
467
483
482
465
425
412
419
391
392
444
502
569
681
754
720
690
685
678
642
567
458
358
277
212
197
226
256
282
333
417
494
500
425
355
324
333
352
390
401
376
351
359
401
429
458
481
476
491
525
522
482
464
464
456
465
465
492
464
419
428
388
353
466
599
607
532
502
494
509
512
540
567
549
543
540
542
568
603
578
520
493
516
559
597
585
557
528
538
583
578
561
577
602
587
591
608
621
659
635
581
554
559
577
574
550
519
516
559
567
506
508
567
574
524
520
534
538
532
533
509
461
430
442
471
496
472
461
461
463
487
503
554
554
486
422
387
380
384
393
406
417
446
473
492
498
521
528
517
493
468
458
463
446
382
370
400
445
488
541
552
507
509
505
482
505
531
530
534
473
418
455
489
446
412
401
428
443
440
445
508
514
458
428
416
447
485
529
548
566
540
461
403
385
389
413
480
542
576
556
476
429
486
559
556
506
487
534
566
536
519
531
550
509
443
412
449
460
444
466
512
540
551
551
533
531
552
539
496
485
509
566
583
545
512
553
598
582
524
553
596
585
535
520
529
545
580
580
545
513
519
557
607
607
533
497
513
531
541
544
599
572
527
542
568
585
616
644
660
636
615
602
586
551
548
579
578
554
544
544
541
534
535
545
565
596
624
627
609
592
623
669
663
593
533
549
610
591
539
505
495
522
540
523
515
579
580
605
677
687
715
758
799
851
833
760
665
556
450
387
372
372
363
378
438
495
526
533
492
447
470
519
536
561
559
519
474
442
424
454
530
624
672
636
612
581
536
497
469
439
436
447
510
572
586
550
516
493
506
490
474
489
527
550
525
499
526
544
530
557
558
555
550
561
589
579
554
524
502
492
499
518
553
560
559
573
550
493
471
486
542
568
559
569
548
523
522
568
617
637
601
519
475
476
493
497
526
545
475
427
392
410
502
545
489
468
468
451
414
381
358
370
427
425
396
398
413
402
381
389
406
418
394
390
433
504
546
515
428
348
314
339
380
411
396
399
381
359
354
382
390
399
400
400
425
475
495
467
463
481
493
487
496
488
429
367
366
417
438
440
462
466
433
381
352
386
442
436
386
353
419
480
520
578
559
459
401
396
413
414
428
487
513
512
484
408
379
410
447
467
440
388
362
384
398
383
408
458
475
448
445
399
366
380
408
438
448
459
461
618
674
676
608
531
499
481
477
485
519
601
618
502
409
426
492
530
547
543
553
581
587
574
577
627
684
704
663
594
577
537
495
501
570
601
592
592
550
538
542
512
475
484
516
513
526
555
576
587
602
592
567
547
576
596
624
652
640
644
669
708
735
789
846
858
817
770
733
668
580
480
406
396
422
452
494
488
425
431
468
495
522
537
533
521
512
524
536
522
535
558
538
442
347
343
412
539
616
554
473
384
307
279
316
392
433
444
438
436
457
480
541
562
525
498
497
480
438
443
474
491
484
513
537
479
442
488
512
495
444
407
413
466
525
510
486
533
569
543
508
451
414
445
516
545
536
489
482
519
527
509
475
419
397
388
370
373
398
451
495
469
439
489
554
573
549
554
586
511
385
350
361
321
275
279
305
375
471
534
467
374
336
364
385
380
435
472
420
394
385
359
348
364
377
391
403
388
340
314
325
304
262
229
218
223
250
304
340
301
256
240
219
207
217
235
231
219
242
266
222
143
115
181
252
274
276
294
347
364
294
233
224
260
326
399
374
297
279
297
325
324
322
352
327
270
251
264
353
490
547
513
460
414
362
317
334
398
427
433
436
452
457
439
446
476
491
479
430
407
455
522
582
585
527
515
494
469
462
437
416
401
432
465
495
556
594
554
506
492
534
560
582
589
616
624
627
637
638
635
611
513
404
346
332
373
448
497
504
490
489
510
528
546
546
567
574
607
644
656
616
567
560
559
556
559
562
537
547
599
640
660
642
596
539
551
591
593
578
585
602
610
605
585
606
660
685
711
728
702
662
665
662
660
642
623
616
634
644
640
627
633
631
649
675
692
673
627
583
589
597
592
629
657
630
579
578
592
588
579
567
528
523
555
589
598
580
581
620
594
526
482
504
564
628
698
771
808
821
859
924
930
859
743
595
454
358
339
379
413
429
459
507
471
410
403
460
505
555
581
564
545
513
481
476
478
499
534
522
528
546
545
543
503
463
480
524
535
551
556
568
536
483
468
470
461
481
507
515
494
480
455
443
428
428
448
464
487
533
567
601
610
592
582
600
617
632
677
733
742
739
758
752
738
722
714
706
697
711
766
828
834
857
860
798
719
711
740
757
782
811
787
743
733
765
813
827
799
784
789
799
810
750
671
634
656
680
692
692
697
643
628
629
621
635
620
612
632
657
657
616
564
542
559
572
551
536
548
565
554
540
543
561
564
551
547
572
576
574
600
602
546
501
496
484
468
441
459
531
566
556
555
528
519
525
525
462
423
419
424
435
447
480
530
552
541
530
516
470
455
440
434
454
488
522
490
458
452
462
462
443
414
396
417
474
521
522
492
455
406
366
359
364
375
412
451
473
490
493
504
484
440
414
397
425
454
435
459
528
565
572
530
504
468
433
413
450
500
527
516
483
469
489
496
493
492
546
628
648
600
546
525
519
486
495
541
541
510
494
504
498
440
431
500
533
551
536
513
546
571
575
533
534
576
579
533
532
536
531
549
588
591
603
655
651
538
449
436
426
415
473
536
557
555
543
524
506
480
453
452
487
528
562
587
587
574
560
543
522
492
490
510
512
482
455
430
418
420
457
487
505
480
437
405
369
407
508
542
491
448
473
470
459
432
399
447
510
524
502
526
581
624
641
660
700
750
761
727
640
550
485
387
309
321
350
339
315
307
341
394
416
402
401
423
414
382
355
379
408
457
502
554
581
569
544
547
554
542
524
501
481
482
453
419
429
494
510
503
523
550
538
545
516
488
496
516
551
600
609
544
499
492
484
463
492
570
654
689
687
645
607
553
468
409
415
453
466
465
484
526
541
558
559
573
595
545
426
398
415
443
483
504
573
642
655
678
672
575
499
489
516
505
513
534
549
568
557
509
457
438
457
483
498
488
471
466
468
450
419
412
443
477
507
526
535
504
418
372
386
413
416
403
434
464
466
436
428
431
459
498
530
498
441
411
432
505
524
524
530
523
473
438
418
393
386
410
406
400
431
473
498
477
469
481
472
448
440
460
473
491
499
507
523
544
536
530
519
516
492
437
433
465
461
436
464
484
497
516
535
531
513
484
492
517
521
491
447
401
399
463
516
521
516
559
576
566
520
459
456
506
549
525
459
457
480
502
505
492
477
462
462
528
589
575
544
523
549
548
458
416
429
460
473
461
479
511
515
534
530
498
470
471
481
489
504
503
488
461
458
489
532
578
562
529
508
493
496
498
490
485
530
578
588
562
536
545
573
565
534
487
463
420
398
433
492
583
630
578
496
460
464
473
505
527
526
517
543
562
548
539
524
477
441
390
364
357
365
393
480
565
598
571
478
413
395
405
438
472
477
453
464
497
513
535
569
628
712
766
783
787
779
738
658
566
495
451
423
364
293
288
299
303
342
390
397
406
418
440
467
485
468
439
460
466
439
472
542
546
494
445
427
459
494
495
497
495
521
530
508
475
444
444
485
522
520
504
469
442
451
493
558
579
564
547
550
538
538
563
547
504
487
531
567
575
562
557
566
597
560
499
486
496
517
536
523
532
591
610
572
530
510
502
529
575
614
611
602
584
521
485
470
469
490
513
543
556
533
513
518
502
463
452
471
505
556
563
520
482
463
461
469
471
468
463
443
444
478
476
443
406
439
498
524
507
449
417
427
458
465
473
489
515
547
545
522
518
523
515
506
493
465
431
435
483
517
525
524
520
566
581
500
413
382
381
427
472
515
551
548
503
482
482
489
521
528
505
469
459
501
549
561
553
507
449
443
471
492
517
548
545
508
507
507
499
520
541
560
597
591
547
478
442
455
462
462
456
466
484
486
529
558
570
547
509
510
543
569
580
569
536
513
517
546
562
534
520
501
480
489
517
532
539
523
483
492
527
530
508
498
485
469
463
480
498
515
544
568
548
488
481
494
490
486
480
488
508
526
528
512
509
523
523
505
489
499
504
524
524
522
516
549
572
538
475
479
494
512
531
555
533
490
522
561
520
469
451
475
490
517
536
566
577
580
573
565
550
502
438
407
408
444
458
485
480
458
462
482
509
565
642
703
708
690
691
711
734
744
694
621
503
409
355
316
288
301
368
450
469
465
412
345
304
339
387
432
481
528
529
497
466
459
464
463
462
488
509
524
550
603
619
568
498
468
475
491
496
498
517
567
559
502
487
480
468
505
537
572
549
521
538
516
513
550
551
530
506
472
460
461
475
548
597
590
604
604
622
638
592
533
489
442
439
486
498
510
543
588
637
672
634
578
567
560
525
502
512
513
527
559
615
631
613
576
543
487
451
416
440
478
483
468
473
472
464
463
464
494
544
555
480
390
361
373
418
487
529
544
541
500
501
516
531
504
464
482
520
493
418
391
380
401
452
442
430
472
547
558
497
457
464
501
523
509
483
470
475
457
432
440
464
491
482
475
470
496
529
556
519
494
514
529
495
456
471
514
538
545
560
573
535
492
468
478
493
475
457
454
448
463
511
541
518
489
480
484
494
524
570
548
496
441
405
413
414
435
440
421
397
382
413
476
539
562
510
467
477
490
561
648
630
527
483
427
371
372
406
431
494
575
572
519
489
459
435
429
468
493
508
531
560
566
563
549
515
502
483
463
459
483
513
520
528
518
516
496
505
535
565
584
600
602
556
527
506
527
566
524
464
436
449
491
527
558
558
551
527
508
499
464
452
485
516
534
543
556
579
575
576
512
424
387
392
417
441
465
507
574
644
724
792
813
818
802
798
785
732
641
534
430
352
340
383
435
429
366
312
330
377
414
467
527
556
526
512
521
523
549
542
508
503
448
426
466
526
552
537
528
475
423
433
451
496
523
554
585
576
578
553
513
509
533
567
570
554
525
522
560
585
558
531
532
509
473
484
518
503
494
486
462
454
514
597
631
632
633
631
610
569
555
575
586
584
589
600
598
591
594
588
574
579
580
567
559
568
552
523
529
550
594
624
623
569
542
522
555
608
611
569
507
464
462
463
491
545
542
504
465
471
480
480
489
478
464
475
473
435
435
472
486
498
525
556
575
543
528
530
526
508
500
500
504
512
518
529
527
520
509
501
506
512
531
544
552
593
632
612
564
551
570
552
547
551
552
570
545
496
452
420
422
446
453
465
459
451
465
493
563
619
611
559
553
583
602
568
497
430
430
477
524
513
457
437
429
446
451
433
404
429
451
477
512
529
544
530
529
564
595
600
566
511
488
474
474
509
524
509
510
526
487
441
433
443
447
443
466
497
512
506
489
465
474
498
541
553
529
502
508
512
542
556
537
523
526
542
547
532
541
545
523
541
588
595
569
533
516
487
457
461
465
460
443
459
506
545
562
521
503
532
547
553
567
559
572
573
523
481
444
395
361
390
472
547
610
663
719
778
830
856
836
790
732
636
519
440
388
341
318
321
321
334
384
443
488
473
434
425
436
467
498
512
480
456
469
480
472
491
501
509
531
569
609
611
548
466
432
452
480
494
501
521
532
505
486
471
503
533
520
504
505
523
537
526
545
563
568
583
599
598
575
547
518
503
507
513
518
557
599
620
618
590
551
538
553
581
604
615
611
609
585
585
604
587
544
484
428
418
450
493
535
567
585
567
530
529
534
522
558
599
599
545
500
515
520
503
473
484
523
506
407
335
325
352
399
468
533
527
492
482
470
438
441
452
461
472
464
462
462
440
442
444
439
438
415
405
436
449
471
496
482
472
507
525
507
473
460
474
504
539
553
514
427
415
460
480
453
461
465
501
527
524
506
513
508
488
480
502
531
521
470
442
456
468
428
411
421
428
454
488
512
505
494
529
581
625
609
524
440
408
421
436
479
522
510
512
523
503
484
484
503
524
546
586
589
538
490
477
478
485
485
497
561
625
636
555
445
397
388
396
423
457
498
539
554
528
477
453
474
504
520
568
664
690
625
528
458
433
432
450
488
533
553
571
530
474
445
451
458
466
520
554
557
519
455
415
420
451
498
521
516
486
463
466
481
481
489
513
515
521
584
689
786
839
813
799
800
791
751
686
612
513
403
319
275
259
290
334
348
338
346
360
374
414
443
485
554
588
574
599
596
509
424
385
392
431
467
500
496
441
430
478
543
570
595
618
581
494
468
480
488
501
525
513
481
484
528
537
539
539
535
531
529
528
510
492
501
495
503
526
525
524
522
552
572
582
594
610
602
562
533
500
495
542
564
548
535
519
511
541
539
547
564
600
643
606
516
449
444
487
534
543
544
548
511
434
396
429
484
497
485
501
527
516
469
446
446
426
421
463
494
469
472
503
544
514
427
392
383
377
365
383
454
492
473
486
520
528
483
427
391
392
422
446
467
464
467
469
471
470
487
479
459
472
503
515
490
443
447
472
469
461
489
534
573
544
505
441
394
397
396
384
414
454
484
491
490
488
515
506
480
466
454
457
461
469
494
505
515
536
544
566
563
533
500
480
501
487
493
508
518
520
520
522
528
516
503
462
456
487
531
573
573
535
499
472
465
476
495
518
522
526
529
526
493
507
529
513
516
508
498
508
519
504
487
538
598
578
519
464
465
484
494
502
504
516
500
490
494
507
535
582
553
466
419
402
412
433
449
473
474
440
430
449
453
451
478
522
540
520
489
476
499
546
590
648
725
781
818
847
841
794
736
670
584
497
425
302
201
191
213
246
273
326
366
413
434
447
495
506
495
465
469
498
514
509
478
482
509
530
548
598
619
563
501
447
394
365
379
396
430
491
548
567
543
506
488
487
514
514
500
506
515
514
505
510
556
595
597
606
609
616
615
569
522
499
504
530
546
520
491
509
534
557
584
569
541
540
557
581
590
576
529
516
529
540
545
533
508
510
529
569
621
635
596
550
521
493
475
461
474
463
450
483
493
422
353
361
431
495
523
504
483
454
438
464
498
493
476
466
477
534
585
583
512
451
433
434
404
407
414
411
418
425
438
491
537
544
571
562
522
476
435
425
438
477
493
484
463
461
485
522
547
533
515
472
390
395
455
473
481
496
474
452
462
525
560
548
514
473
442
437
473
503
506
511
527
530
518
490
458
465
480
498
506
528
529
516
516
530
542
538
508
456
438
456
484
521
555
541
519
507
508
492
468
463
488
503
519
547
589
605
553
546
482
422
427
475
521
522
510
509
508
482
494
509
495
493
530
563
579
569
514
478
469
471
441
411
421
460
520
590
634
617
558
482
410
401
456
514
534
518
488
462
469
498
502
507
546
586
571
541
499
466
489
561
659
765
860
902
896
858
799
694
570
446
357
320
289
260
281
333
381
410
418
440
482
478
436
418
448
443
452
480
478
456
439
450
470
502
514
515
514
537
555
537
504
475
488
486
495
534
573
555
512
510
523
514
520
535
537
560
566
559
572
632
659
614
517
463
496
535
532
504
491
497
555
631
642
599
547
529
547
591
612
596
582
559
540
520
546
589
609
558
497
521
581
619
622
590
507
458
476
524
556
559
558
546
523
452
427
439
495
529
528
530
551
521
493
469
443
429
436
439
421
410
418
442
470
464
457
464
474
492
502
477
456
439
452
490
491
456
457
473
490
494
502
479
450
462
521
603
671
667
615
563
523
455
391
385
408
410
411
429
452
457
451
443
470
498
513
518
525
528
500
450
481
534
532
509
531
571
579
523
439
410
419
467
497
485
482
496
498
509
512
481
471
486
492
526
576
616
582
499
453
451
468
491
512
528
541
540
582
629
617
549
488
491
552
525
455
430
440
478
505
508
516
587
638
600
524
461
431
407
400
416
445
472
500
512
514
526
534
501
478
512
533
506
465
469
494
515
522
512
504
507
518
502
469
454
460
464
487
516
518
507
480
477
487
511
515
520
511
513
560
605
614
631
662
694
754
824
884
924
862
671
503
421
375
321
252
236
257
290
371
446
473
474
465
444
419
400
385
421
457
468
465
461
456
468
499
534
548
545
526
512
491
502
534
536
481
449
445
443
448
462
483
520
569
603
605
607
558
514
508
520
565
612
584
535
517
518
526
543
555
574
617
611
553
526
513
516
492
455
476
529
582
595
586
573
593
634
628
588
536
503
501
490
507
509
508
508
511
519
521
520
543
550
545
556
565
576
544
535
536
513
489
471
476
495
497
502
549
575
533
426
367
381
406
428
436
437
446
477
477
460
476
514
524
538
520
526
515
507
513
541
502
398
343
365
447
538
560
492
435
431
465
500
514
491
464
464
483
504
526
529
512
480
485
494
495
468
461
491
517
515
523
528
517
520
528
517
494
490
495
489
468
485
512
524
554
599
606
563
518
485
466
467
493
507
506
528
562
577
551
493
465
478
516
557
573
556
517
495
473
493
587
641
589
550
530
494
452
438
440
464
489
521
524
517
521
488
454
493
545
534
505
536
574
581
546
534
548
543
533
542
530
508
520
534
532
527
509
508
540
593
598
556
497
458
448
451
467
486
487
493
498
488
484
498
513
529
521
504
513
540
571
572
550
512
516
521
437
373
378
444
550
606
658
722
778
818
825
791
727
659
582
470
358
292
261
248
256
290
340
401
445
472
501
485
474
462
464
492
491
490
487
486
500
499
492
502
526
549
566
554
501
448
458
466
478
513
535
540
548
555
576
579
565
543
512
485
487
524
575
599
618
617
549
488
487
526
565
551
519
527
538
567
546
526
543
545
535
523
527
527
509
527
546
552
561
536
524
556
598
613
590
561
543
525
481
468
495
555
609
592
546
506
509
535
564
567
542
501
487
470
454
447
447
464
476
492
507
491
469
462
461
462
460
482
476
455
453
484
522
524
541
577
569
511
425
366
340
350
376
404
420
416
414
448
480
514
510
479
441
419
421
454
483
509
535
528
530
538
530
476
429
435
487
527
501
465
464
474
504
523
549
541
514
493
461
443
444
473
488
496
525
560
582
583
559
538
513
512
528
564
571
512
474
480
494
517
542
564
546
497
484
486
478
482
503
509
525
563
586
550
492
452
441
463
470
464
477
505
558
609
582
503
462
455
443
468
497
508
524
560
559
510
443
443
491
493
484
502
505
519
530
553
579
579
564
546
532
516
510
524
538
576
624
616
577
491
445
490
535
554
556
522
487
495
514
511
517
530
545
525
520
581
604
574
551
537
518
493
481
499
504
506
521
542
555
547
561
562
526
482
445
445
473
496
544
561
500
439
428
446
460
489
531
570
601
633
697
813
907
941
931
843
723
648
554
421
317
277
269
278
340
420
470
515
536
528
494
478
475
483
524
541
514
449
423
473
506
513
504
501
485
464
465
468
488
514
502
497
499
505
499
503
507
522
508
490
469
482
510
541
585
634
690
671
566
521
507
527
542
504
471
461
463
471
480
482
498
525
557
576
580
575
576
606
642
632
583
553
566
573
564
538
510
496
519
550
585
597
594
585
584
557
529
526
521
513
504
500
540
578
565
527
485
457
466
489
503
467
480
495
473
430
387
382
402
437
470
480
428
414
408
408
422
436
457
486
490
467
447
450
474
495
500
489
462
445
459
492
526
508
477
472
477
487
505
502
485
472
475
476
472
472
464
506
542
540
540
544
507
463
428
426
458
499
507
510
501
456
430
466
534
531
529
513
511
514
492
459
455
455
454
498
532
528
520
530
567
556
504
454
445
469
508
523
486
485
497
498
476
462
486
531
568
597
598
544
470
420
415
455
489
487
487
495
489
514
560
614
614
560
506
480
476
470
472
487
508
514
510
517
545
558
555
531
505
506
515
525
526
511
523
519
510
561
598
563
517
478
432
433
452
448
463
513
536
542
554
549
523
490
490
484
478
475
459
476
503
524
550
557
551
542
531
549
573
587
564
536
522
512
453
392
420
470
496
521
535
543
566
601
601
564
548
558
558
525
505
504
494
499
524
538
530
522
555
545
507
502
503
474
455
486
502
523
546
545
553
575
549
450
407
406
446
526
614
705
774
807
839
835
734
640
572
478
384
336
335
347
350
356
368
409
440
461
454
463
487
513
520
502
440
371
366
429
496
503
515
510
511
515
511
519
543
569
565
562
562
549
529
519
545
573
554
504
464
455
473
492
519
541
575
570
532
506
506
530
563
605
599
558
532
533
510
473
458
462
497
513
484
470
487
547
629
652
634
616
619
591
545
474
451
491
541
569
590
580
551
537
557
578
589
579
585
607
579
502
480
489
498
557
572
525
494
485
501
500
465
467
499
503
495
514
516
488
466
440
396
366
375
400
442
454
431
448
479
484
502
515
528
549
544
503
438
400
416
443
471
500
481
449
436
419
426
457
479
472
465
487
501
463
448
449
462
453
455
483
503
513
536
556
564
553
504
474
481
468
443
450
487
498
521
555
595
615
608
558
526
489
481
492
481
467
482
502
513
526
531
514
487
458
473
503
523
553
589
577
562
547
530
497
482
503
507
497
499
530
537
509
481
503
519
514
486
479
489
464
432
429
440
456
461
482
506
528
539
547
587
600
580
547
500
488
492
513
524
489
495
528
556
578
558
504
476
496
504
525
530
515
467
453
470
492
501
506
513
525
520
517
526
524
511
478
479
531
583
553
525
504
497
535
554
536
508
485
495
494
492
529
577
558
476
442
468
481
496
504
471
475
507
544
575
561
504
459
451
488
520
563
578
548
524
482
452
464
504
568
605
614
604
579
513
462
456
494
525
550
558
558
561
571
560
523
486
465
487
503
505
533
532
517
508
510
514
520
518
543
548
525
490
500
540
551
555
569
548
523
490
466
451
417
431
475
527
590
657
746
826
852
860
829
755
670
574
458
363
299
262
278
337
382
402
413
420
436
458
472
484
491
518
559
562
529
483
466
472
483
484
469
472
488
528
558
554
539
482
421
411
460
501
502
499
540
567
547
490
482
527
565
572
593
587
550
556
555
526
496
489
529
527
506
502
500
500
518
532
536
514
482
471
512
561
562
525
502
540
563
559
551
555
585
609
596
564
537
541
552
557
588
606
591
557
531
527
547
559
548
502
477
486
496
511
519
492
488
517
533
511
474
458
499
516
486
473
476
481
492
495
476
458
433
416
445
467
482
474
475
498
512
485
465
480
481
485
465
422
361
324
338
401
463
532
588
556
502
471
459
439
432
421
408
427
470
511
525
528
540
555
536
489
480
509
510
502
506
511
513
554
584
554
482
459
481
503
514
503
472
476
488
502
491
492
543
584
559
499
457
475
511
531
515
483
498
529
554
523
515
512
508
502
515
533
544
532
515
502
477
500
560
602
540
478
496
469
408
398
425
462
500
512
492
475
461
464
463
494
536
552
563
547
515
527
556
562
532
535
535
519
506
504
514
532
549
561
564
566
522
485
524
562
566
535
498
495
509
523
496
477
479
497
527
522
493
483
486
493
489
491
521
543
555
545
521
527
522
507
525
565
545
515
508
482
455
438
448
469
484
466
470
492
509
509
508
531
536
530
507
499
514
528
525
542
558
568
576
591
549
479
455
486
533
576
562
543
533
514
477
464
477
498
523
568
614
608
567
541
489
448
467
556
599
588
565
558
538
516
535
557
572
565
546
536
516
518
523
525
530
491
457
482
503
495
469
468
495
516
517
539
564
544
509
467
455
485
506
487
488
486
499
533
565
587
642
677
668
680
720
775
831
835
788
740
674
558
438
357
347
369
359
349
361
389
424
465
505
526
480
427
433
470
520
540
521
504
485
485
516
527
561
607
608
572
516
477
452
436
437
433
461
528
589
615
581
531
520
513
505
519
539
524
471
470
519
577
577
543
536
551
569
558
538
515
508
533
521
511
533
571
599
616
638
644
616
567
543
536
572
640
697
664
546
501
504
546
582
589
584
590
600
570
501
510
564
595
573
546
547
547
523
511
505
517
518
520
514
501
520
499
475
466
490
535
557
545
489
443
445
454
439
433
449
464
479
496
513
529
515
468
427
418
442
483
482
456
494
541
553
549
544
531
506
468
465
471
462
464
487
519
518
496
450
431
459
495
506
494
532
579
573
542
507
504
526
551
553
549
530
504
502
507
484
485
513
506
500
513
535
549
516
476
449
445
452
459
476
496
498
518
535
571
596
578
536
459
405
419
475
502
517
561
623
628
587
551
533
499
472
451
471
522
524
519
514
497
496
499
475
421
427
469
534
578
575
559
559
559
535
507
510
532
544
555
544
510
510
541
563
538
519
499
490
493
522
511
519
542
548
527
493
472
464
461
471
472
496
534
542
556
551
535
534
545
581
546
522
538
548
542
507
455
379
370
413
415
458
487
496
545
581
586
576
571
565
549
540
509
489
480
482
484
490
488
483
506
525
537
549
529
500
475
487
540
594
612
558
482
482
525
524
489
478
504
564
599
592
574
554
514
489
460
467
512
543
551
557
551
525
508
494
517
545
557
560
556
578
535
484
467
448
462
532
591
588
531
516
487
473
489
501
513
499
516
568
573
529
511
492
494
490
473
488
525
567
589
651
711
799
877
909
910
870
786
685
570
490
439
410
380
370
365
360
361
392
412
416
424
426
435
455
486
515
534
530
524
488
448
456
490
490
487
480
481
510
521
501
513
514
500
506
502
498
481
454
452
514
573
608
565
499
481
493
522
548
544
550
544
527
522
522
532
546
541
542
528
512
484
470
477
507
525
534
541
547
541
519
516
540
579
590
576
543
548
596
639
628
590
588
592
565
572
548
522
506
511
530
545
574
563
488
434
398
419
469
497
490
485
507
548
581
552
501
448
440
439
432
464
473
450
457
479
449
418
421
439
485
541
539
476
447
430
428
433
445
436
430
452
477
507
531
562
567
529
471
446
429
431
462
483
496
513
499
494
488
481
489
496
511
514
504
503
506
512
477
436
418
425
480
489
493
506
494
526
560
518
493
470
447
459
483
523
556
531
483
474
484
477
467
461
475
495
507
504
497
483
486
501
517
548
534
512
513
510
507
494
486
473
466
459
459
483
499
508
513
527
521
495
489
509
520
503
478
500
528
526
514
528
539
535
530
524
523
528
521
532
530
514
487
453
433
447
478
482
480
491
520
547
559
545
487
452
462
464
465
472
491
513
513
526
538
551
567
557
536
543
575
552
476
413
420
426
424
435
472
526
552
536
512
486
502
546
515
446
474
546
579
595
567
531
518
513
495
498
525
542
535
515
499
494
508
529
557
535
502
487
470
468
458
438
444
489
528
516
505
501
494
517
538
537
557
545
529
524
545
579
563
507
481
475
470
515
552
545
499
450
438
461
484
467
453
462
485
531
571
571
514
460
441
448
472
479
485
492
474
436
420
456
504
563
624
659
692
778
860
909
935
931
858
719
564
458
410
373
327
293
291
304
319
330
378
438
467
459
453
470
495
486
489
504
494
460
456
468
469
445
450
470
475
502
494
499
516
519
511
528
556
523
480
451
421
411
437
492
548
536
512
531
548
524
498
506
534
519
473
457
492
515
500
502
506
499
501
516
526
536
568
574
550
522
533
556
571
564
552
520
495
499
527
561
575
568
546
496
461
453
459
477
500
542
594
631
617
603
568
530
495
488
486
482
490
506
531
538
518
491
473
482
482
449
391
379
396
395
419
446
452
456
458
441
412
404
402
410
442
499
510
497
492
477
465
472
474
474
491
475
476
455
432
439
434
442
472
484
488
493
492
468
448
456
478
459
438
446
462
459
457
451
445
459
476
477
475
483
490
462
450
440
418
398
416
421
398
404
431
484
530
527
505
498
516
516
469
451
473
472
479
494
493
469
466
511
514
446
437
462
474
481
488
480
491
528
514
503
513
505
506
526
530
495
470
482
507
493
467
425
402
440
479
525
564
553
537
549
558
549
548
532
518
534
538
477
427
446
492
502
490
491
483
468
473
482
505
490
449
448
477
515
524
510
512
537
540
500
433
398
453
573
612
539
453
430
450
456
448
446
466
480
512
560
566
523
510
533
543
567
559
542
522
500
503
507
520
543
562
570
547
526
531
541
572
571
499
464
431
413
445
502
583
629
626
584
532
488
447
432
425
450
511
573
606
595
569
552
540
536
504
481
477
472
479
503
523
513
490
499
539
549
488
433
449
509
574
591
534
489
491
480
469
480
475
462
450
476
516
549
612
665
722
795
832
858
884
893
805
655
512
399
331
298
295
311
345
382
413
438
454
483
513
529
536
566
597
557
510
465
458
466
442
401
378
389
410
446
472
491
515
523
489
459
463
480
500
523
539
562
545
520
522
538
555
583
605
607
639
578
447
382
384
440
494
533
529
534
545
536
528
533
526
522
516
528
543
555
525
507
520
526
552
585
606
602
591
605
632
657
645
606
588
566
532
535
585
597
573
556
529
546
556
488
467
513
525
510
494
468
465
466
465
488
472
444
446
486
474
456
453
449
446
433
435
441
418
427
443
461
462
449
448
460
456
449
481
509
505
450
404
397
420
463
507
474
465
449
415
406
457
494
490
505
534
527
477
431
431
442
466
480
471
470
481
500
512
513
525
531
528
520
512
471
452
459
479
475
475
509
514
489
454
451
502
547
523
467
436
435
429
411
418
461
495
505
472
456
491
551
596
581
516
467
439
413
412
432
458
461
481
524
534
523
507
505
512
532
543
557
541
503
486
486
485
505
535
539
563
577
555
539
529
511
502
527
531
519
503
523
566
557
511
479
480
515
499
480
495
520
530
516
494
497
519
538
528
516
577
602
547
460
413
388
425
449
487
552
604
589
530
463
450
464
470
486
514
552
563
567
553
501
467
478
504
515
507
528
562
574
520
449
469
529
551
544
536
531
524
504
498
507
515
535
555
559
535
536
564
601
614
581
541
555
574
536
488
471
487
532
559
543
537
548
541
511
460
416
406
401
415
454
493
522
512
460
417
412
424
455
459
467
507
541
562
599
644
673
724
750
785
869
911
821
707
614
506
391
309
263
265
291
317
334
356
372
384
401
420
468
514
498
454
436
463
500
506
510
507
502
505
522
505
483
507
554
569
560
540
515
481
473
460
506
600
605
540
489
467
465
460
465
483
498
480
458
454
512
592
641
617
555
507
491
522
552
541
540
540
517
500
515
581
640
596
515
480
479
489
504
543
594
614
603
589
605
603
598
600
593
595
607
593
576
583
568
574
584
562
540
520
519
540
559
575
552
539
522
486
458
450
453
460
452
456
470
478
486
504
538
556
498
448
413
388
353
350
389
449
469
442
432
410
410
436
458
453
456
440
464
476
482
471
458
453
460
494
510
543
574
523
421
393
407
435
467
482
491
486
483
499
502
520
545
554
519
468
444
454
481
512
531
542
541
538
520
482
463
445
446
457
493
529
556
605
616
569
514
442
414
421
451
502
536
536
534
515
458
423
416
473
544
560
530
497
504
509
490
456
458
482
494
491
481
486
519
577
607
557
505
477
472
461
457
470
467
465
491
505
518
514
516
526
532
541
557
534
520
559
587
575
525
493
481
476
484
511
514
524
532
547
568
562
556
536
504
499
503
536
581
584
546
486
446
448
480
518
515
469
444
498
561
589
559
493
461
480
500
514
510
497
534
554
534
542
538
512
518
524
525
515
502
526
561
580
564
558
541
524
521
503
472
453
460
506
555
579
563
545
534
511
507
530
527
520
531
534
548
527
467
439
446
464
513
550
551
522
502
485
494
523
520
508
510
527
560
630
712
771
834
853
841
793
748
682
558
406
330
325
319
318
313
307
306
328
380
450
485
485
465
427
433
420
415
450
507
537
545
517
516
525
532
551
561
557
509
448
452
505
520
502
500
510
541
585
584
555
539
514
499
485
483
505
576
627
623
583
533
472
421
429
468
515
520
569
632
680
662
614
555
535
529
523
535
535
559
603
596
537
506
533
543
532
538
535
537
562
583
602
624
647
629
566
515
521
531
510
491
476
508
568
621
650
653
605
533
505
471
461
444
430
456
470
470
470
463
456
440
425
412
390
376
381
425
477
499
500
509
495
464
460
480
493
484
449
477
508
493
458
444
473
503
495
475
520
499
445
436
444
450
465
486
482
434
399
380
423
495
536
508
480
513
543
550
527
493
472
445
430
429
431
435
461
497
524
559
547
468
404
412
451
499
564
599
599
576
551
504
477
474
521
539
536
528
495
453
462
491
497
480
485
520
539
512
499
517
538
550
534
483
445
434
458
490
520
528
509
497
514
540
522
496
500
512
516
493
479
499
528
518
518
522
546
502
438
428
440
437
463
501
532
574
543
503
486
515
532
483
441
468
527
563
541
483
476
479
498
534
517
497
492
488
501
528
545
520
502
512
512
517
550
585
604
570
549
552
557
530
494
480
489
515
521
497
485
495
519
558
563
533
501
520
538
525
512
486
477
481
462
477
519
548
549
546
528
521
536
544
559
580
583
560
509
483
507
532
547
514
480
504
508
478
461
451
464
485
493
489
492
485
474
467
484
529
551
531
526
507
483
504
555
620
684
760
843
895
893
870
837
779
692
587
478
388
304
278
298
301
290
288
323
380
459
472
460
466
469
467
477
477
434
407
453
498
509
525
561
570
598
631
617
561
490
463
456
461
457
460
487
493
502
532
551
556
567
569
527
487
466
481
490
489
472
484
527
585
609
599
606
626
615
578
531
525
543
560
567
565
568
563
558
549
560
574
584
575
579
579
552
535
572
593
576
556
549
551
594
631
654
644
596
546
540
553
557
551
552
542
513
488
481
473
467
449
451
475
461
451
448
458
473
489
498
506
493
489
464
439
448
446
457
469
491
522
507
487
468
472
466
485
496
479
450
425
417
434
491
536
567
595
600
551
498
487
482
470
458
450
458
486
491
495
539
545
515
474
468
466
480
487
474
465
469
477
473
473
463
437
448
497
546
544
550
550
530
504
506
545
560
541
501
474
458
447
461
497
492
487
494
506
515
528
532
532
549
581
574
518
487
505
508
498
505
517
510
519
558
569
546
534
507
479
468
495
555
576
518
491
487
485
492
515
536
534
490
482
509
513
499
468
488
526
521
499
487
520
517
500
498
484
462
473
496
525
533
509
487
458
442
433
459
493
511
538
564
578
556
494
469
498
523
526
537
535
556
577
543
524
504
484
486
512
521
544
553
556
551
522
493
483
516
533
519
509
513
521
513
506
540
570
580
560
537
507
497
499
517
514
513
502
478
484
496
537
588
606
584
560
515
473
462
484
505
506
514
520
513
483
460
451
480
518
510
475
456
448
466
478
492
520
522
490
455
449
496
561
608
634
671
721
810
889
927
903
824
719
591
443
335
310
309
301
306
355
397
393
410
450
481
488
456
435
443
446
437
449
519
567
569
522
478
460
471
495
498
479
451
448
472
510
518
508
533
560
557
512
466
457
470
495
507
531
553
547
522
505
519
517
496
491
502
541
566
544
526
507
482
475
494
522
541
564
590
617
630
613
584
581
575
572
591
601
591
572
561
576
598
617
589
546
551
579
608
605
574
559
558
566
550
567
576
545
539
541
558
589
577
561
541
514
485
459
437
426
436
432
433
446
459
458
451
463
507
536
506
432
407
418
424
443
454
438
443
460
454
476
503
522
543
528
499
490
491
485
457
449
477
485
468
476
496
508
500
507
519
528
518
507
522
520
472
466
507
501
492
499
486
464
462
492
529
560
550
504
466
481
530
575
573
574
540
469
458
440
423
440
472
494
514
532
493
467
470
479
484
515
557
560
507
463
443
449
484
506
494
468
463
449
443
481
543
579
588
573
590
603
586
551
532
533
537
538
517
496
477
466
484
534
550
503
438
455
563
607
555
523
512
463
425
430
444
494
542
549
550
532
511
529
491
450
478
523
496
449
421
424
457
493
502
507
515
495
480
465
475
492
527
509
475
503
538
535
523
496
469
497
528
512
515
502
481
506
510
495
473
441
439
454
470
508
546
572
625
661
625
552
531
518
512
521
529
528
521
499
485
490
513
542
549
546
550
554
562
537
518
504
505
511
542
552
538
546
545
514
479
501
549
573
604
587
536
475
412
395
395
424
442
453
481
531
595
665
755
823
851
851
845
794
704
584
465
403
344
308
312
319
337
357
382
409
447
462
509
563
563
510
484
490
529
496
449
429
452
502
543
554
551
531
511
513
534
551
555
555
564
552
543
552
549
551
545
528
514
499
504
544
574
580
591
595
581
564
594
588
536
484
435
424
441
485
515
535
582
576
577
594
591
592
595
568
546
535
555
579
580
575
582
608
617
621
623
595
558
537
585
651
675
660
632
578
519
501
516
547
584
599
597
598
605
590
523
487
507
507
486
455
433
424
451
463
476
489
524
547
515
429
399
442
478
468
461
482
466
438
442
461
450
458
510
547
563
514
415
380
408
437
444
446
443
429
442
477
496
486
462
453
513
567
541
507
483
492
515
530
552
575
570
533
489
468
451
452
465
493
523
540
535
520
503
480
465
466
500
546
541
531
541
525
504
494
514
521
524
520
520
501
497
502
523
535
548
571
549
489
459
467
490
539
562
528
498
483
481
480
526
552
535
524
514
524
546
546
527
516
503
504
497
484
484
476
448
469
500
507
510
532
533
524
525
559
594
570
514
495
503
490
503
513
509
551
570
537
550
547
503
490
508
508
520
519
469
449
454
483
537
557
551
551
550
547
550
551
561
555
513
489
496
496
521
551
552
513
508
511
523
543
536
516
521
481
438
418
430
480
520
533
524
516
493
477
477
486
527
559
567
552
539
559
594
573
535
520
524
522
500
500
532
555
563
538
496
491
537
556
545
547
543
533
514
505
509
514
493
473
484
486
489
491
485
483
469
472
489
498
506
524
506
487
485
501
515
541
572
599
629
677
745
807
851
879
865
803
689
573
453
366
309
273
257
268
305
335
376
426
464
460
439
414
402
449
491
500
512
503
487
470
475
516
557
600
595
537
507
490
495
477
471
499
516
533
574
596
590
546
499
484
476
474
480
455
464
500
527
534
530
522
527
528
511
482
458
449
487
551
581
592
584
571
572
559
545
539
555
574
574
556
553
568
539
519
532
522
523
566
555
502
462
469
502
526
559
592
610
604
583
575
575
569
563
548
504
472
460
460
447
446
465
464
458
467
474
482
477
485
475
468
452
423
410
408
414
422
425
425
444
473
486
474
460
449
459
489
487
474
477
471
466
462
445
436
453
442
442
450
462
493
540
566
592
566
505
493
475
429
372
353
387
422
458
468
457
479
498
486
493
508
514
524
538
520
473
416
394
414
467
518
524
491
492
490
476
469
488
528
544
545
554
550
540
524
514
494
467
471
489
485
503
526
520
497
467
483
522
523
483
438
443
477
492
509
519
509
492
469
492
540
583
601
599
585
557
497
469
481
478
489
518
544
538
511
483
481
460
448
451
480
519
535
507
464
449
486
510
510
514
488
471
516
514
474
464
468
472
509
534
539
529
535
546
554
546
545
576
603
572
502
462
451
458
439
417
429
440
466
513
551
555
525
493
504
532
536
516
499
494
499
508
518
499
509
511
477
463
467
519
553
570
539
504
484
481
494
516
513
500
496
479
459
470
495
514
527
501
483
474
475
519
539
569
566
544
521
509
474
455
449
454
469
484
491
479
464
449
467
506
525
519
500
488
513
536
537
547
538
495
459
450
457
446
423
445
496
580
639
690
761
847
915
908
845
768
667
531
402
330
290
259
255
273
314
327
354
411
467
518
546
533
495
458
416
416
426
451
446
451
456
441
442
474
543
599
603
539
453
452
473
470
442
454
493
489
475
480
518
534
550
543
528
534
565
585
537
457
427
459
483
491
492
546
590
608
617
595
541
524
533
528
527
498
478
479
481
508
548
584
593
581
565
561
581
606
592
549
533
548
579
606
601
600
603
562
518
476
457
506
554
522
496
495
503
493
495
499
506
491
441
414
415
427
444
464
468
474
490
459
413
403
436
465
493
513
533
528
479
438
397
415
465
500
483
428
419
439
438
430
451
458
450
428
439
472
479
504
548
560
536
497
470
458
447
443
460
491
512
510
497
504
532
551
538
478
426
418
452
491
505
483
463
441
409
412
456
468
475
479
487
488
474
492
510
510
507
508
519
523
509
506
526
496
465
482
505
491
479
478
520
557
549
536
518
538
552
515
476
462
468
470
493
512
516
530
523
498
484
494
515
508
474
464
476
497
525
543
545
540
531
531
539
526
501
518
547
552
514
473
511
546
545
521
491
498
521
502
498
513
521
488
449
436
473
498
482
452
433
434
484
542
547
532
556
561
525
499
499
494
475
455
451
458
481
542
598
605
564
497
450
457
493
543
558
543
512
514
509
482
474
493
520
492
454
456
470
487
497
491
463
470
525
556
550
543
543
556
554
534
528
527
530
519
476
492
527
533
529
534
543
522
528
552
564
578
544
472
453
454
459
463
458
448
430
438
473
523
560
555
536
496
463
452
464
483
484
461
440
443
473
544
614
665
705
748
807
837
832
821
773
686
618
539
461
370
308
299
309
331
339
350
378
422
449
452
458
467
454
468
478
457
448
479
507
532
568
574
547
528
504
478
454
445
475
536
561
536
510
518
505
470
470
481
478
486
504
507
512
503
502
516
528
556
595
601
567
549
541
511
484
476
464
503
550
551
558
546
533
529
588
636
612
530
481
500
563
597
598
593
571
555
566
576
562
555
568
581
580
552
535
551
559
555
550
559
567
569
568
564
574
583
584
585
549
497
484
466
434
427
435
463
443
396
411
459
461
430
421
455
452
398
361
385
415
449
494
533
551
521
481
460
433
434
465
450
430
450
453
450
492
522
475
426
407
433
466
499
523
496
452
422
423
450
483
496
523
535
507
494
495
474
476
500
501
492
482
485
484
464
447
444
443
484
538
555
506
495
526
563
572
575
574
553
490
447
430
458
490
527
547
537
506
449
406
406
442
492
511
462
428
441
462
475
502
544
571
548
515
504
505
508
516
527
530
519
500
495
510
519
523
538
529
473
434
440
462
476
498
528
529
509
524
547
551
553
554
570
541
462
424
428
476
496
509
537
548
525
522
526
513
508
507
507
527
526
518
527
547
547
519
513
527
525
527
549
553
544
501
500
495
458
441
455
443
423
415
440
486
516
530
569
563
549
562
536
509
528
545
507
444
432
475
504
526
525
532
548
551
540
524
498
483
498
524
524
512
543
521
465
461
490
476
476
500
522
527
534
559
575
568
548
539
537
524
508
513
542
552
546
550
551
545
576
568
538
497
494
491
489
511
513
460
418
434
440
446
481
529
550
531
510
491
496
530
533
523
541
543
543
531
505
485
478
541
600
638
669
715
762
813
867
879
850
758
622
482
389
362
340
359
404
402
377
366
357
376
410
462
501
515
530
517
504
505
503
485
497
529
537
533
511
495
543
580
547
507
472
431
400
418
449
484
523
541
554
564
564
553
535
529
523
510
492
486
480
501
527
544
552
556
555
552
530
552
576
558
553
548
549
551
569
553
518
501
485
512
557
618
616
583
564
530
496
496
527
564
584
617
647
673
634
572
530
493
499
514
527
548
554
568
576
578
561
546
497
447
453
486
508
515
517
526
518
500
492
464
422
401
416
439
440
437
448
449
460
482
485
457
470
520
522
480
437
436
453
489
508
549
534
500
496
517
472
443
436
445
454
455
455
448
462
491
515
525
520
516
478
468
490
526
543
525
523
540
533
526
536
519
501
483
462
468
477
479
471
474
485
504
536
550
531
538
558
523
449
419
415
452
557
597
552
509
481
477
489
494
519
568
590
575
525
486
473
467
469
486
509
519
522
522
559
588
584
581
575
519
469
481
541
559
534
525
525
553
572
563
548
540
538
517
498
487
492
523
525
539
565
544
520
533
542
526
479
475
547
605
589
584
574
550
513
485
494
518
542
581
609
606
562
506
467
474
501
519
518
529
545
536
527
544
567
575
552
519
514
509
523
600
656
649
599
542
485
476
552
622
605
590
581
575
585
597
587
585
587
569
548
544
546
570
605
636
591
529
529
519
505
514
502
487
460
471
485
480
528
580
613
640
666
664
629
574
550
539
531
506
490
483
516
607
630
588
556
561
571
571
567
585
608
569
503
472
494
507
501
483
469
461
470
501
543
540
528
493
494
519
531
531
503
478
456
445
463
510
541
538
540
510
499
528
619
757
847
897
918
899
824
706
573
442
359
336
341
338
349
322
296
304
311
327
378
393
393
413
414
399
410
443
471
480
435
383
394
432
436
450
452
399
332
325
367
383
377
382
408
425
441
405
353
345
329
343
417
466
480
486
460
395
324
304
311
341
373
388
391
392
423
448
461
446
391
396
411
428
433
432
440
444
433
403
388
406
410
355
336
383
429
451
442
426
414
431
468
490
485
486
489
490
466
463
484
519
542
565
546
515
539
540
533
521
496
478
470
471
411
387
424
446
458
449
419
405
389
386
400
400
398
374
346
333
342
358
357
373
388
381
373
349
348
395
447
476
494
490
450
395
390
398
405
394
390
437
507
544
549
534
484
434
386
342
312
317
337
337
377
424
449
431
418
425
443
451
458
490
504
507
491
447
421
404
421
460
469
436
416
426
457
452
458
489
504
504
497
471
492
564
582
549
536
524
553
549
527
517
520
515
536
561
569
579
572
523
501
528
544
547
597
657
692
640
571
560
594
636
678
685
655
640
630
621
625
627
651
651
622
627
651
680
697
699
701
673
630
598
615
644
632
584
553
585
655
703
674
537
455
484
503
496
485
459
488
520
554
597
610
597
593
583
565
564
589
590
586
566
529
513
533
544
555
565
567
552
582
641
624
522
422
390
408
437
477
510
517
515
532
570
616
624
605
602
599
597
551
531
556
564
538
503
500
506
513
498
503
534
583
571
510
484
487
515
559
596
616
621
615
615
584
566
569
583
589
570
579
615
646
647
578
534
577
652
698
649
579
525
483
492
528
556
552
512
502
527
547
542
506
478
498
546
572
547
530
537
542
572
588
588
636
698
666
588
600
685
800
890
914
961
998
944
809
652
505
408
364
398
456
464
440
403
402
450
498
521
505
485
478
499
529
550
568
549
520
519
581
632
649
642
581
520
522
576
604
597
589
589
602
574
528
493
492
512
523
552
577
550
516
508
512
510
499
517
537
575
539
514
555
590
583
562
562
575
581
605
604
601
599
591
588
577
557
558
597
626
581
535
540
568
608
657
668
608
572
572
621
664
676
644
599
585
625
688
688
655
657
699
735
740
680
594
523
535
577
603
624
649
658
627
562
500
494
519
533
529
543
542
540
544
539
544
518
501
501
490
476
470
465
446
461
528
602
603
549
486
485
504
477
409
400
410
438
489
539
579
584
596
605
586
534
528
514
509
481
462
486
524
542
554
558
543
510
513
537
552
534
524
512
508
539
560
572
583
605
591
554
550
552
539
528
551
577
572
547
513
475
462
491
510
524
505
465
457
495
517
525
505
509
492
474
484
512
563
550
506
515
531
492
435
404
435
501
526
528
528
517
503
502
504
490
492
519
541
539
521
495
485
495
514
529
526
523
526
527
508
483
491
529
560
543
509
510
527
530
503
518
558
586
609
596
554
540
554
527
488
488
506
535
544
563
546
516
491
484
497
498
506
528
530
511
485
448
436
471
497
537
561
542
493
441
421
447
479
464
434
398
371
430
455
448
464
429
363
320
295
278
277
320
379
395
362
331
320
314
309
333
364
376
401
393
376
342
334
344
359
363
338
322
375
391
347
346
378
415
420
368
314
295
282
258
235
225
234
256
309
368
362
336
311
319
334
342
318
307
346
397
393
323
280
316
375
438
501
531
565
591
566
553
624
716
764
746
652
540
444
347
271
238
240
239
224
217
218
233
269
339
422
477
485
499
522
484
408
369
327
331
411
492
525
506
443
406
407
420
432
435
459
480
472
435
395
408
447
483
490
479
462
439
405
418
434
475
543
584
559
498
473
471
462
480
498
489
488
526
558
585
605
603
601
609
604
581
590
566
550
575
579
526
494
502
524
541
572
593
603
608
604
590
562
558
568
591
619
594
537
528
587
625
658
665
600
520
492
476
480
485
494
510
510
522
527
493
465
470
470
466
471
496
523
504
459
433
422
427
419
441
471
497
523
522
530
571
590
590
516
458
466
497
514
528
536
544
567
598
594
549
529
533
560
563
554
537
536
547
566
578
584
571
553
540
559
564
551
531
507
507
523
538
558
596
612
561
504
491
505
505
501
541
597
635
623
590
526
483
489
508
528
540
540
540
552
543
536
574
597
589
558
551
575
611
659
669
651
664
618
560
548
536
541
581
620
620
579
540
532
543
573
626
656
629
577
547
529
555
586
588
590
597
577
575
559
535
522
530
550
548
549
550
526
523
523
492
473
481
490
498
507
526
529
509
490
479
487
512
544
544
515
499
517
562
588
566
526
488
485
516
536
515
458
460
487
498
483
459
461
493
526
533
525
518
504
501
528
543
526
489
489
488
498
503
512
530
523
514
509
505
521
560
612
654
621
535
459
438
448
434
449
475
494
490
501
523
514
487
482
508
537
526
490
471
474
467
464
480
475
453
428
446
476
495
552
568
536
538
507
461
480
550
646
771
897
958
904
798
717
608
489
397
335
301
299
304
339
382
411
383
360
372
400
428
444
471
490
466
453
479
482
475
489
483
462
481
524
480
442
453
486
535
537
534
528
518
503
507
516
540
549
503
497
537
531
517
519
517
510
488
483
481
505
544
562
539
508
467
453
459
492
536
557
525
481
489
522
555
581
614
618
583
554
568
580
598
599
591
620
643
640
593
526
480
478
491
513
525
519
514
508
517
507
487
511
541
558
552
528
529
538
523
509
479
448
443
452
472
494
480
461
475
475
440
394
375
393
447
484
434
421
431
457
455
412
375
376
405
426
446
463
471
466
453
464
502
509
509
519
510
500
497
442
380
381
431
487
520
510
505
470
426
428
456
477
502
541
490
424
384
416
453
480
482
465
476
502
503
478
447
441
468
496
524
547
575
549
481
396
384
399
454
495
500
498
498
515
508
488
444
428
432
434
433
453
481
488
450
413
402
416
424
409
420
449
479
486
481
457
409
372
358
407
501
538
543
557
546
524
481
443
446
453
468
472
510
519
505
514
524
484
458
459
454
416
396
439
496
506
456
444
494
523
536
504
479
481
483
500
516
526
527
518
516
506
509
530
536
524
485
445
434
443
480
514
530
527
517
524
543
546
535
520
503
469
464
477
493
470
424
404
426
462
493
500
474
463
448
466
467
470
483
510
518
520
551
512
448
428
444
453
430
435
484
510
483
469
510
513
514
519
462
439
447
449
446
434
428
433
459
523
583
638
713
786
804
816
837
843
801
692
564
481
408
342
321
288
301
362
420
401
371
366
417
488
505
469
475
508
518
493
467
472
466
476
474
456
485
494
474
450
481
547
534
509
506
500
532
584
600
609
590
543
503
475
435
456
516
559
570
566
548
502
477
478
480
485
500
520
523
506
497
524
574
631
653
647
613
582
592
602
591
586
580
545
511
511
559
620
634
579
513
498
485
490
535
565
575
569
566
584
557
523
518
538
547
539
521
518
507
475
483
508
560
578
545
503
500
485
417
381
375
380
388
428
452
447
451
463
491
471
427
427
441
466
477
467
446
444
439
427
400
393
404
402
428
476
521
563
576
521
441
422
425
433
459
468
457
478
531
545
496
474
480
478
473
486
472
434
406
417
435
466
502
526
526
535
541
537
513
467
448
448
479
524
573
590
598
593
593
566
572
568
567
618
610
553
499
475
486
510
516
506
528
615
707
721
665
601
565
549
524
498
500
522
542
574
605
626
634
614
608
620
626
636
587
542
504
512
559
550
528
536
582
614
625
596
585
543
503
478
493
504
524
543
545
550
579
568
539
507
523
549
561
548
579
633
656
632
546
508
549
586
590
577
585
574
561
548
538
541
575
594
585
564
529
529
558
595
610
614
614
599
584
598
635
639
622
609
608
592
608
654
649
563
501
510
508
489
464
498
561
571
517
481
451
436
461
478
448
479
515
506
517
543
545
535
491
435
415
454
471
504
563
612
684
754
841
907
939
919
864
780
634
464
364
318
291
271
269
288
299
309
318
356
433
521
575
590
576
542
516
487
452
445
478
483
480
489
499
470
419
395
453
528
578
601
566
519
474
448
439
445
478
537
542
524
561
611
637
556
488
500
496
438
390
415
451
466
459
479
525
560
574
557
560
573
580
575
584
611
620
595
601
621
607
573
546
560
567
583
594
606
602
592
588
582
596
611
598
588
607
630
607
545
524
521
541
531
509
482
464
461
479
517
532
535
513
489
438
423
433
432
450
425
370
358
432
507
508
488
461
404
369
357
360
400
453
464
430
415
409
417
434
431
423
432
443
438
458
462
441
444
464
491
525
526
488
486
506
516
492
445
434
471
488
521
494
471
471
486
502
505
520
524
505
499
509
500
480
486
505
512
488
483
487
478
457
449
445
422
413
458
507
525
521
512
519
538
534
494
489
508
508
507
501
501
490
474
491
509
489
475
455
465
502
500
509
541
561
562
508
481
495
502
524
556
572
548
532
517
494
507
515
500
491
468
444
455
477
506
542
532
508
501
486
489
532
599
652
602
497
442
458
488
512
510
498
487
493
503
521
505
494
510
530
519
508
512
525
515
528
516
459
448
477
489
506
509
544
608
631
593
545
525
528
550
578
581
547
507
509
530
535
526
525
501
468
461
482
483
470
483
478
472
474
471
473
470
448
465
521
561
560
548
557
545
537
554
606
690
776
828
838
836
820
750
629
514
427
378
327
274
270
303
322
352
368
380
392
385
402
457
495
499
509
499
487
496
526
561
547
511
475
492
503
523
521
493
480
497
531
549
549
551
553
551
541
519
493
453
454
459
484
481
473
503
530
544
542
536
546
533
537
575
580
563
567
589
570
539
505
479
451
436
466
490
503
544
619
610
558
534
550
562
529
498
492
550
575
584
573
592
598
591
558
519
483
515
581
613
584
541
492
482
503
521
532
548
545
514
490
453
434
437
438
451
463
459
476
484
475
447
411
398
432
451
433
415
412
430
447
449
444
449
480
493
480
447
445
457
479
480
427
407
436
485
490
456
449
452
465
493
500
497
487
467
454
459
459
471
485
498
480
469
474
493
476
452
464
485
493
458
418
406
419
485
548
579
570
519
492
476
483
513
516
520
517
525
535
541
556
588
593
551
520
498
511
489
473
457
450
466
494
517
529
529
529
540
554
538
502
461
468
491
502
506
493
454
443
465
471
500
514
538
561
562
530
491
497
507
501
501
554
602
570
514
481
482
497
517
532
544
552
563
550
525
512
503
506
483
463
461
492
542
559
550
518
505
541
566
574
584
569
553
543
536
540
539
545
521
516
537
550
550
539
540
566
564
556
544
560
569
548
526
519
503
499
501
497
501
497
501
509
469
450
470
487
458
440
456
481
526
554
527
525
566
620
706
794
835
861
863
800
692
562
420
295
213
197
207
255
315
368
395
396
415
456
483
513
527
522
521
545
571
592
537
479
461
460
470
488
528
559
564
555
533
498
472
498
521
544
531
499
502
523
563
579
574
574
577
535
500
515
527
534
506
491
524
543
558
550
558
565
551
537
561
596
591
547
466
451
492
548
557
556
528
527
556
563
546
534
558
608
594
585
591
584
577
573
561
540
531
545
568
591
583
583
570
584
601
587
588
571
509
457
486
520
543
520
494
455
410
397
426
451
441
420
416
433
462
482
488
488
503
512
495
491
496
505
499
499
502
456
381
384
426
474
500
489
437
384
387
441
502
539
515
445
385
362
384
418
448
483
507
521
502
480
483
490
490
502
527
509
516
545
528
479
465
488
533
552
563
566
539
491
477
509
529
509
480
438
429
464
498
505
492
498
512
565
640
644
580
524
509
521
523
509
512
521
529
541
545
531
495
480
458
460
477
482
474
493
495
474
470
480
522
548
565
559
507
463
454
469
499
543
581
547
511
513
469
418
446
490
508
517
542
557
553
548
544
528
499
503
519
519
491
487
507
503
491
494
510
514
499
467
459
512
558
546
530
519
525
536
533
575
599
555
500
473
507
538
568
561
531
519
514
510
536
566
549
537
513
481
470
472
464
483
480
493
493
474
439
459
522
563
559
538
469
446
432
431
472
479
475
491
510
499
476
443
424
467
519
557
635
731
827
865
901
909
862
770
625
485
380
309
279
276
308
375
421
419
443
439
426
441
447
449
467
481
462
457
484
520
526
517
504
492
493
559
605
572
507
493
498
485
475
472
465
465
483
509
499
468
473
504
522
516
494
506
552
558
561
578
585
555
496
459
455
463
477
508
523
541
555
509
461
463
486
509
535
573
629
648
632
609
595
610
606
579
554
578
634
644
600
561
539
534
538
549
557
556
560
568
590
588
566
561
551
512
510
537
549
510
486
492
502
477
433
414
432
452
434
420
445
442
449
459
482
493
506
484
454
447
449
440
438
466
511
500
468
453
443
418
395
406
432
448
479
498
485
450
451
475
498
515
522
528
518
499
494
521
552
550
525
513
501
496
499
490
449
411
468
531
541
532
536
549
528
500
498
499
483
464
483
522
528
498
476
468
475
520
543
522
477
433
400
416
471
507
529
554
552
551
532
490
469
467
466
485
545
591
611
569
508
489
476
473
490
511
538
548
527
500
481
491
500
494
490
475
488
532
562
572
569
583
594
608
609
584
548
531
505
471
451
463
455
447
473
486
487
490
524
562
578
575
591
589
566
540
516
477
465
486
516
555
604
586
506
460
449
456
476
493
491
496
508
494
525
543
535
496
466
512
510
463
449
450
468
515
593
624
596
583
586
554
499
457
449
487
522
520
516
538
532
508
503
500
497
518
542
529
532
570
579
576
536
489
461
446
426
424
462
494
492
494
509
514
518
545
545
537
514
495
504
530
557
559
535
491
489
525
565
640
715
762
821
890
903
818
691
581
494
406
359
322
291
277
295
327
355
376
398
428
453
473
486
498
496
491
501
522
547
543
506
525
555
547
498
461
459
461
431
420
440
486
537
551
534
529
553
547
520
513
507
515
511
516
535
549
524
476
472
497
504
510
512
512
537
558
557
542
546
545
538
525
522
558
584
594
590
557
514
531
565
580
574
577
545
537
563
534
491
485
510
531
536
528
528
575
641
686
645
589
547
484
454
479
517
559
575
564
562
540
504
468
451
439
443
446
433
437
429
419
439
475
486
481
467
449
418
421
453
483
530
536
514
479
464
477
505
536
548
545
522
486
480
504
518
505
490
479
480
475
480
490
489
493
518
528
501
464
457
454
475
510
514
490
476
482
489
491
506
490
469
497
518
537
533
490
454
460
496
493
484
469
424
397
421
480
541
572
571
540
516
541
551
529
503
536
586
538
433
400
465
536
540
517
492
491
500
499
507
506
514
512
479
447
477
524
551
554
536
537
546
530
528
560
589
574
528
477
482
506
493
476
481
509
555
555
512
497
473
459
475
519
578
566
517
509
527
532
521
476
443
477
527
532
500
491
477
470
491
487
444
446
483
537
581
583
556
541
524
485
462
464
481
512
534
540
543
540
524
532
529
543
524
521
538
503
451
421
441
456
467
519
546
536
522
522
521
539
554
553
537
519
532
529
522
518
524
530
517
509
493
484
475
503
535
552
599
615
566
488
443
436
440
488
483
447
435
434
430
437
479
482
495
488
511
524
541
553
550
554
569
580
549
517
508
495
483
491
501
513
500
505
532
541
541
522
503
504
538
570
566
532
510
499
500
508
499
481
498
520
535
529
510
510
527
540
546
558
574
557
541
542
527
481
447
454
457
449
473
512
564
643
726
785
841
912
948
872
707
551
449
376
328
352
420
394
329
333
393
430
449
469
480
473
470
464
453
457
472
473
464
474
487
487
480
496
517
520
506
472
433
444
486
507
509
512
523
525
530
568
588
573
555
528
510
497
500
532
588
609
585
566
527
500
476
469
461
479
519
541
558
556
537
515
485
472
482
526
590
611
593
581
593
611
591
542
495
501
549
592
589
566
554
540
509
508
481
482
505
533
544
549
575
587
559
546
550
512
482
492
509
526
528
503
510
543
563
526
475
457
465
465
452
454
468
484
454
418
406
427
431
450
487
495
487
493
486
490
496
487
512
540
570
553
542
520
471
432
443
486
505
501
526
529
527
512
472
423
406
423
452
455
485
533
550
490
419
409
418
438
493
540
548
536
524
496
476
482
500
528
524
461
425
446
495
539
522
500
494
516
536
538
537
532
571
595
588
552
500
467
474
483
490
538
571
577
554
516
489
483
458
431
452
466
466
497
547
567
569
584
605
586
513
480
469
465
500
526
537
512
460
423
432
477
527
560
573
562
521
485
470
490
506
527
522
507
491
465
470
489
508
519
515
509
515
557
549
543
561
552
550
531
500
478
486
473
447
493
562
572
548
531
541
568
577
578
575
537
491
470
459
473
488
503
521
474
453
459
454
447
491
543
556
544
528
532
553
560
507
456
460
518
522
509
520
537
525
520
525
526
499
477
490
523
528
516
526
527
518
516
512
533
553
555
533
489
440
452
509
529
506
500
496
508
509
495
490
521
548
536
523
535
530
504
493
536
596
607
587
579
557
510
472
463
465
474
496
494
492
509
532
548
550
534
522
526
519
515
481
469
511
554
551
544
533
497
498
539
556
559
549
522
477
458
487
543
555
527
507
513
537
514
485
471
491
537
532
489
434
400
412
449
507
571
548
535
575
620
662
711
797
879
903
891
867
796
699
583
497
416
358
342
308
280
300
340
403
473
510
515
494
475
477
491
489
467
474
479
482
482
491
496
495
516
538
541
531
513
517
529
545
568
565
570
546
508
498
508
531
542
527
484
452
437
457
459
460
458
461
479
491
459
435
432
432
423
495
589
620
584
538
531
557
593
602
573
545
549
549
535
515
522
545
555
551
561
555
551
544
519
507
517
543
538
528
535
537
559
541
516
527
548
533
522
535
540
541
533
532
561
547
549
562
543
493
463
464
466
471
479
470
500
524
494
454
469
452
456
498
523
503
465
429
418
433
471
490
477
498
507
501
473
456
458
501
537
542
515
497
504
489
488
508
522
513
514
492
482
486
501
482
491
539
558
533
500
468
454
469
495
481
470
460
473
492
497
504
532
527
525
508
475
465
500
548
558
583
625
627
570
523
482
450
440
454
504
569
616
578
510
462
467
482
463
443
463
503
513
493
488
522
552
534
500
498
523
556
568
569
535
498
473
489
509
522
531
559
566
556
562
562
556
545
545
528
514
515
476
439
458
518
557
569
578
598
588
541
524
538
525
491
480
500
514
523
540
533
516
517
524
529
535
549
553
562
543
516
516
524
549
553
532
494
467
472
483
480
460
453
464
478
481
495
528
549
522
508
520
529
529
534
522
503
507
542
571
587
582
523
452
422
440
473
486
509
504
476
454
449
464
494
516
546
559
544
531
504
453
438
456
502
527
497
471
477
500
520
554
578
573
597
621
588
509
466
478
482
471
449
460
504
538
554
545
514
516
539
562
536
493
485
479
483
506
527
538
539
545
557
552
546
562
550
498
482
456
418
406
418
458
481
488
480
480
510
547
553
553
552
521
477
459
453
470
491
536
603
648
707
763
809
833
828
812
744
654
564
477
379
301
278
263
264
311
370
393
413
429
465
507
509
504
506
520
528
523
522
533
562
565
537
518
495
505
562
562
492
429
396
419
473
548
558
511
436
424
426
442
505
567
568
550
530
509
533
564
546
530
559
579
559
511
504
533
518
476
487
521
536
542
543
556
566
598
640
624
569
529
504
499
505
516
529
530
550
587
573
544
541
546
538
539
533
559
612
613
589
563
566
587
586
590
582
556
519
486
499
517
499
468
436
435
430
434
454
479
478
493
472
420
407
433
447
460
458
435
419
430
468
476
457
448
421
397
395
418
440
443
458
488
516
490
463
448
438
436
437
435
456
478
459
474
514
517
499
477
445
417
420
448
475
514
529
496
473
481
499
499
489
486
486
487
493
492
486
493
515
509
510
534
536
499
443
411
437
471
484
509
538
518
498
501
483
451
467
461
441
453
487
510
526
518
508
499
501
509
489
464
455
474
512
524
516
505
491
487
486
491
489
483
480
470
456
465
482
499
533
570
570
537
510
492
468
470
499
519
521
513
494
495
508
552
592
582
552
473
389
385
440
498
549
568
563
547
538
561
539
494
462
444
448
438
424
438
491
508
511
511
502
505
544
538
503
481
463
488
523
553
519
450
440
457
474
489
490
508
521
517
499
478
477
462
448
451
439
422
448
507
561
608
606
581
537
506
497
512
528
533
545
567
575
540
488
468
466
469
483
523
530
508
479
484
546
553
544
523
488
480
507
538
532
504
493
514
538
539
529
530
491
453
448
450
480
516
504
501
521
529
527
518
516
543
573
576
546
515
462
448
462
442
417
418
450
493
503
493
476
476
463
481
506
516
519
509
506
482
475
520
582
623
663
696
732
777
818
839
834
798
724
613
491
360
278
258
298
362
379
380
406
438
483
477
452
444
448
465
464
433
469
526
534
523
525
515
482
450
415
396
431
462
455
463
480
499
507
518
516
507
513
536
531
491
487
493
490
486
486
480
483
521
563
562
531
527
505
474
503
558
568
550
534
536
529
498
478
489
507
521
534
549
576
615
618
590
555
543
551
547
545
548
549
556
582
604
605
570
503
454
478
510
507
503
520
528
533
557
601
602
546
491
493
463
423
412
432
469
479
482
471
443
425
426
431
431
444
473
454
427
406
394
420
425
416
422
441
458
454
446
438
445
468
483
500
514
493
457
428
441
471
508
523
525
527
534
527
509
461
444
476
517
523
493
450
444
459
477
480
487
494
498
518
536
544
553
497
448
431
447
476
477
454
437
438
464
494
505
507
476
455
465
468
482
524
533
520
508
545
574
559
504
503
525
533
541
568
582
582
572
516
453
433
457
485
491
485
496
510
499
480
482
504
464
444
454
446
442
473
520
545
536
549
584
603
572
502
454
462
494
542
572
564
552
546
540
518
509
503
502
489
508
506
482
486
510
549
536
490
480
482
452
475
552
581
533
480
468
492
529
553
571
587
567
511
482
469
458
466
478
453
423
406
426
468
503
536
541
531
515
508
483
495
520
521
527
542
543
564
577
546
538
540
519
508
516
491
447
452
506
507
498
504
485
471
469
519
537
523
522
522
519
524
537
552
524
515
554
591
603
578
541
503
475
479
496
533
532
498
452
475
498
493
482
462
464
510
563
556
550
554
520
492
498
500
512
524
522
519
484
461
490
525
526
508
508
502
509
506
513
507
514
513
511
509
502
459
438
449
496
568
612
652
721
785
824
844
829
753
651
608
563
479
405
370
338
292
281
315
376
407
401
405
429
444
463
509
545
541
541
538
527
501
443
432
448
471
487
517
554
554
485
441
437
452
482
518
530
530
501
461
454
470
496
510
503
476
469
494
543
565
553
533
520
500
507
522
515
510
513
518
537
541
529
531
544
570
575
542
548
576
604
623
628
639
631
564
494
488
542
598
570
542
558
564
555
545
548
546
543
542
530
541
563
580
575
572
543
496
448
417
419
453
504
543
543
519
496
484
478
466
456
456
477
462
433
437
459
496
502
483
448
409
393
394
387
399
425
473
515
519
504
489
483
507
509
475
455
461
456
444
422
417
417
415
460
532
550
547
549
517
478
493
499
486
476
486
484
468
459
453
459
458
456
464
478
472
465
478
502
526
535
535
546
531
519
508
541
551
526
529
531
533
534
539
510
502
504
481
456
444
434
411
428
477
489
485
473
466
474
497
528
558
563
531
472
465
472
509
530
517
488
497
526
538
536
529
553
532
540
561
584
556
470
414
431
488
521
539
533
535
556
556
561
568
538
460
404
412
437
453
458
479
494
475
460
461
476
490
511
532
558
563
542
518
504
509
540
536
516
514
513
495
490
474
456
448
477
498
490
497
521
563
582
578
567
550
532
483
461
497
521
513
528
553
550
502
458
461
482
518
524
513
488
470
462
495
542
569
554
521
510
512
509
515
538
527
521
544
538
521
527
537
531
507
503
501
515
535
517
539
559
543
503
498
510
521
547
545
565
606
613
585
568
559
549
539
524
486
436
431
432
440
462
496
510
506
496
487
442
415
441
472
482
500
512
505
521
544
508
513
553
565
592
669
731
779
840
870
857
821
760
661
561
488
425
365
382
403
393
346
328
344
373
401
425
427
439
473
495
499
503
503
483
470
458
433
442
475
522
557
572
581
560
547
532
507
499
500
509
517
495
479
537
600
550
480
474
497
508
527
547
521
494
485
481
481
470
476
494
553
630
649
593
546
520
518
514
520
527
533
556
589
595
596
598
564
552
553
549
541
536
537
567
618
597
543
531
541
551
576
594
587
573
562
577
587
582
573
568
584
578
556
547
554
547
540
524
511
515
502
504
504
449
416
414
427
455
479
467
429
437
458
447
446
460
486
491
475
463
463
489
513
509
462
435
454
460
454
445
458
491
503
509
495
467
456
467
478
484
487
479
488
496
501
518
514
520
554
564
535
505
491
486
504
498
490
488
488
496
496
496
500
507
529
546
555
528
507
507
531
512
483
488
477
464
464
478
493
479
478
479
495
513
526
513
487
495
507
501
505
496
501
547
555
523
489
499
525
548
541
538
575
602
533
461
443
460
460
477
483
490
531
541
515
481
473
473
488
508
533
549
548
549
523
495
481
480
478
497
515
522
535
555
571
564
547
543
543
543
523
516
506
483
482
493
521
557
545
550
556
562
585
608
597
530
459
433
434
457
493
536
553
537
522
519
503
445
413
446
482
499
497
488
462
438
441
446
458
500
525
526
543
574
572
518
494
503
521
502
505
525
538
532
566
574
543
521
537
545
501
483
513
549
550
537
512
525
537
546
581
592
578
564
558
552
563
544
567
573
516
478
487
511
546
567
542
488
442
423
437
470
499
540
576
573
545
547
556
552
557
538
539
553
523
487
473
488
544
587
638
715
797
866
893
904
885
837
773
679
561
437
357
335
365
387
385
395
405
406
419
453
487
528
538
549
561
533
478
477
494
503
512
525
539
556
553
549
498
423
430
481
484
490
491
506
522
531
531
517
519
512
515
526
554
599
623
623
586
560
531
491
453
451
474
505
505
503
489
490
487
479
469
482
513
528
544
542
548
548
550
525
504
520
554
599
607
589
564
541
529
521
522
543
573
595
599
605
601
594
599
609
607
579
561
542
543
520
510
508
506
506
483
435
401
371
378
431
484
520
501
467
447
421
409
417
421
420
409
409
441
479
480
450
444
450
479
465
433
436
433
443
441
431
415
417
428
469
488
497
480
448
449
443
475
509
542
543
550
542
506
478
427
375
371
390
402
422
464
491
509
512
525
548
528
503
485
473
469
483
490
485
482
501
506
472
445
474
498
502
470
424
434
481
512
507
493
497
512
511
511
530
535
550
579
587
519
455
459
497
464
446
450
467
468
470
468
435
398
396
434
504
572
577
549
520
519
514
522
522
517
510
509
514
504
511
528
538
523
510
527
556
579
569
512
489
491
525
581
619
596
510
453
449
469
484
476
474
486
497
502
503
512
516
523
525
506
472
465
508
572
589
545
509
503
476
431
444
441
426
425
429
425
423
425
448
478
485
485
514
544
564
548
498
461
444
451
457
485
514
541
555
537
520
490
474
481
490
478
491
528
539
513
492
497
515
515
521
500
474
478
496
497
494
489
487
509
544
571
551
535
540
536
530
524
501
473
478
494
514
498
464
453
488
508
484
453
443
433
420
441
493
531
510
459
424
418
440
506
611
668
697
727
766
802
851
886
863
782
687
582
502
429
356
307
290
306
325
354
386
412
436
458
469
482
503
511
477
479
510
525
504
514
543
497
446
440
463
461
439
437
455
455
433
463
515
536
545
551
532
508
514
542
567
560
519
482
471
457
468
514
534
498
477
472
448
444
468
504
523
560
590
586
568
579
572
564
543
515
521
540
539
545
559
590
608
610
605
587
566
554
537
560
610
644
662
650
623
598
588
585
589
589
618
689
711
654
610
578
544
575
594
580
548
529
507
496
495
509
539
548
534
507
482
486
516
531
534
490
430
398
407
458
494
473
463
481
495
496
497
514
544
572
544
511
491
458
438
450
509
545
519
486
483
494
468
425
423
444
467
452
439
451
484
506
513
520
528
542
535
512
489
485
499
530
543
555
544
516
494
496
509
503
490
523
541
544
533
481
452
448
445
479
512
552
582
584
562
522
469
429
412
432
465
484
491
479
497
513
489
486
502
503
499
494
518
545
563
577
581
561
521
502
508
511
513
502
479
461
450
466
491
518
515
475
477
506
538
556
521
499
500
510
522
520
537
562
574
544
496
496
503
498
519
525
526
519
502
497
506
493
485
483
510
560
566
535
481
426
407
441
477
493
506
522
525
514
506
494
493
502
495
502
505
497
498
502
513
542
547
527
522
532
567
559
549
553
568
552
514
444
425
469
491
484
460
453
465
494
518
512
513
528
509
486
467
468
484
494
494
489
495
510
512
544
603
614
556
488
470
498
522
532
526
470
393
373
416
448
493
505
485
469
463
509
562
566
544
527
529
535
506
479
447
445
480
529
565
583
616
673
718
761
822
869
860
800
690
555
442
355
272
237
250
278
315
344
354
350
367
388
428
469
471
474
482
490
501
502
498
490
505
509
517
514
501
473
459
477
505
518
505
501
510
498
467
452
471
516
531
506
497
506
527
533
515
509
510
503
512
515
502
502
508
544
577
570
543
504
494
531
564
549
500
503
528
526
521
498
510
553
589
615
599
574
540
539
566
587
573
544
531
533
531
551
583
564
548
546
555
559
551
553
580
529
493
491
504
535
536
504
473
458
464
454
421
430
474
488
485
462
427
410
440
485
536
560
532
514
502
482
453
456
442
430
417
420
450
463
471
495
516
520
504
482
467
475
501
526
514
487
462
448
453
444
427
439
454
473
498
508
505
465
448
476
513
509
475
461
485
520
516
500
479
490
494
479
514
597
606
526
472
474
485
511
547
559
573
563
508
456
432
453
472
489
500
482
495
529
543
532
500
482
485
485
497
517
523
536
523
501
504
538
559
541
522
502
497
461
430
450
492
492
472
464
502
520
516
514
513
502
522
560
574
578
575
556
546
550
561
568
539
479
473
523
540
514
489
443
449
495
515
506
490
453
457
470
480
506
547
567
557
538
509
489
485
493
489
496
523
529
506
472
477
519
556
581
578
546
511
501
502
512
501
489
483
470
462
475
474
465
471
503
538
543
525
510
529
557
555
517
498
498
497
447
420
425
455
479
499
507
498
509
539
538
514
523
549
578
581
558
538
523
493
485
501
518
483
472
478
476
496
532
556
572
545
498
487
493
494
540
568
590
604
593
580
497
440
463
492
489
498
536
611
701
774
820
845
828
765
676
573
470
388
352
343
354
358
337
305
323
375
431
467
494
511
507
489
501
497
494
495
471
452
480
520
553
569
589
534
463
437
431
453
470
466
455
448
455
488
553
626
606
541
482
451
421
428
451
483
514
526
540
570
562
535
519
528
522
521
512
514
524
535
532
527
532
557
593
575
581
609
636
657
641
601
555
502
497
519
538
550
601
672
696
647
552
527
525
519
494
481
515
572
608
588
539
495
452
483
512
520
518
525
553
573
561
503
464
497
556
572
538
504
478
460
443
423
410
424
460
493
518
527
492
482
475
458
482
519
496
463
428
417
417
423
440
473
491
502
519
523
530
513
516
511
490
479
490
502
516
523
529
515
493
468
462
465
477
476
505
495
444
422
435
490
501
446
410
397
408
432
459
482
490
489
501
546
561
549
523
519
526
538
526
493
489
486
492
516
551
580
592
538
480
442
410
403
415
449
496
504
504
484
485
487
488
478
482
479
463
446
451
473
489
503
514
523
549
573
576
573
559
497
422
399
407
439
487
512
513
474
457
448
445
448
461
478
482
487
501
510
523
567
591
550
510
500
478
480
517
548
538
490
450
455
485
508
510
507
520
542
543
553
545
543
572
585
590
589
581
550
499
478
517
583
616
608
606
579
542
533
530
524
559
570
562
540
482
462
507
576
607
624
624
606
578
552
538
563
592
563
516
508
516
517
556
591
600
597
580
585
586
543
509
508
504
482
473
484
520
578
609
622
617
613
587
560
543
537
538
543
535
512
495
480
483
508
518
594
682
720
771
811
833
856
804
682
552
483
444
363
303
287
289
312
363
416
445
420
393
405
400
417
430
446
458
458
463
483
481
482
484
489
500
513
497
470
456
451
469
502
533
538
506
477
454
447
483
483
468
475
484
475
476
499
514
526
548
538
526
514
508
513
510
503
506
510
515
486
495
528
533
519
534
536
530
498
474
502
567
624
676
643
575
548
534
546
571
589
583
526
475
472
484
504
509
497
483
492
517
564
577
568
557
555
554
526
496
500
510
519
515
504
508
511
499
504
505
512
506
511
501
475
467
447
443
483
523
492
466
439
406
348
343
382
449
502
526
492
464
457
453
463
485
496
503
532
546
535
483
436
394
377
401
435
464
476
510
550
559
538
482
433
393
366
387
450
518
536
525
508
490
486
483
493
506
522
513
505
527
533
569
605
612
584
541
497
471
480
501
494
455
443
459
467
462
439
468
513
492
424
409
443
501
550
571
555
503
504
549
569
551
545
566
558
541
546
571
576
534
470
453
448
431
449
485
463
449
460
458
449
480
524
528
524
520
522
543
560
566
539
513
505
495
499
516
520
530
550
543
509
477
447
448
479
498
494
500
526
521
506
508
518
536
561
566
550
541
503
497
509
516
553
611
640
624
572
510
472
474
516
557
577
562
522
512
547
573
577
565
559
578
580
574
545
495
448
481
513
527
537
553
552
533
497
489
499
526
556
572
578
574
553
555
552
524
499
504
531
533
516
509
503
495
507
530
558
563
545
522
513
504
527
541
543
526
493
476
496
558
637
722
823
913
951
895
789
677
578
473
384
310
259
291
326
353
382
403
447
468
450
460
480
470
485
531
526
506
503
522
540
530
489
456
438
431
453
462
456
482
529
536
528
538
544
490
436
424
466
561
622
615
558
514
500
514
525
517
498
479
445
435
460
504
531
560
607
622
613
575
543
535
525
530
570
584
530
477
472
488
491
484
515
562
609
620
609
577
545
541
597
666
663
650
579
496
486
510
522
504
521
565
581
555
512
491
495
552
584
569
487
414
416
426
433
433
463
484
441
402
414
424
431
424
413
426
447
458
453
437
411
409
414
436
464
468
461
458
468
483
534
560
544
510
481
516
500
456
421
436
472
491
493
466
445
434
431
431
454
475
482
459
477
536
540
525
511
500
495
523
552
529
468
437
450
495
557
581
569
548
542
563
590
565
523
506
498
496
510
506
507
524
551
527
462
458
510
537
502
514
558
584
574
550
525
533
556
557
527
497
483
501
536
553
564
598
603
561
546
555
563
532
498
487
512
503
506
538
538
512
510
512
493
462
439
440
486
529
542
547
558
575
580
580
591
594
574
551
511
473
467
488
465
420
414
440
487
520
524
494
488
510
523
490
437
452
493
491
487
501
540
547
546
565
577
573
578
579
546
515
534
529
467
448
444
448
461
482
519
570
581
587
590
574
542
545
568
558
524
514
562
609
572
503
489
485
426
378
391
417
398
387
428
449
479
506
519
534
523
492
460
447
468
503
536
556
530
505
514
560
588
582
574
602
638
696
774
845
883
863
778
645
506
381
316
307
331
344
336
359
395
436
451
437
440
430
430
432
410
416
450
461
466
467
467
444
449
498
533
543
533
515
484
447
434
471
518
541
553
557
560
549
502
493
544
618
628
550
456
437
462
483
488
496
501
488
458
429
437
473
521
531
562
583
580
578
566
537
534
563
580
576
554
543
561
590
584
540
522
537
542
537
538
564
586
592
601
602
585
571
575
555
548
564
580
579
583
610
605
544
476
434
456
510
541
507
490
488
434
415
432
460
466
452
438
439
420
424
462
471
449
394
383
397
409
445
488
520
518
483
456
434
433
447
453
470
470
487
503
509
517
522
525
539
536
522
512
534
564
571
558
532
521
531
532
480
424
405
414
465
510
450
407
403
395
372
381
429
438
456
465
492
529
545
553
550
555
543
523
496
489
492
532
566
545
511
493
500
507
510
481
475
468
485
496
503
532
556
507
423
363
362
408
453
512
566
578
556
520
522
561
584
583
545
519
526
528
501
472
469
459
497
539
553
546
518
463
423
443
501
544
549
544
517
506
527
537
536
539
552
565
556
528
504
507
501
519
547
576
573
564
546
500
496
528
545
541
513
490
489
507
492
498
512
515
521
570
609
601
546
498
470
455
455
477
485
493
526
548
530
503
489
478
487
507
519
524
505
480
464
463
513
559
567
544
514
505
486
461
480
518
510
499
520
522
489
496
529
587
668
694
667
682
766
882
910
812
711
594
474
353
287
260
250
267
324
372
389
407
443
470
465
441
433
437
461
499
520
526
521
549
573
513
436
399
406
438
480
480
465
489
521
548
558
578
638
640
564
516
497
486
473
460
437
428
469
524
544
563
551
516
495
469
446
474
499
523
526
518
508
496
525
551
509
483
484
490
510
530
521
471
449
458
472
499
500
462
447
487
528
579
605
602
586
578
587
619
612
569
533
524
532
535
519
481
451
405
386
426
472
504
510
500
494
482
472
472
453
443
442
461
466
458
457
436
417
408
392
365
325
339
379
408
408
432
467
477
495
467
436
431
432
425
438
467
497
466
432
423
448
453
428
421
405
391
401
421
439
467
494
502
476
438
449
503
536
549
580
575
511
456
463
478
489
480
476
506
524
528
531
527
525
526
517
552
612
649
640
578
525
508
501
503
533
560
563
546
546
557
580
553
499
458
428
392
363
352
375
396
424
420
399
419
468
487
496
522
552
545
514
501
488
508
516
506
476
466
491
532
545
491
432
437
501
536
542
551
554
520
453
417
423
450
473
468
454
480
545
581
553
520
503
512
550
577
551
501
470
445
429
498
614
646
566
490
442
447
469
442
413
405
424
490
523
518
486
462
462
476
530
597
637
589
538
527
547
558
504
461
431
421
423
439
520
618
690
719
723
721
723
727
748
801
768
694
660
567
417
295
231
228
258
303
363
396
422
471
502
507
488
499
509
500
521
555
572
569
559
564
590
587
543
494
470
470
493
519
557
592
582
531
487
499
533
559
576
539
535
554
558
561
602
605
598
623
621
592
552
525
534
538
540
545
545
542
551
559
558
543
540
552
567
576
578
605
641
654
624
601
583
573
576
583
580
600
628
645
658
659
648
651
639
633
615
591
562
542
564
620
650
629
617
613
597
546
503
485
470
466
482
479
475
456
445
456
472
485
516
529
505
479
454
462
448
409
390
399
419
455
486
492
522
524
525
533
521
488
479
510
558
635
712
677
581
509
471
460
462
485
523
553
544
509
496
466
417
424
457
503
551
581
598
589
567
531
538
579
623
644
636
605
553
512
506
494
468
428
418
458
518
562
599
620
607
543
500
508
528
534
555
628
637
605
566
532
519
538
584
612
574
525
529
564
586
578
549
506
488
491
521
542
510
488
464
483
507
531
555
581
587
568
611
626
574
529
540
580
591
555
523
510
512
543
590
618
623
615
607
634
649
639
597
557
584
626
630
617
596
580
544
519
487
467
478
524
592
586
538
511
536
550
542
542
578
617
616
535
502
497
503
527
548
545
541
541
539
560
579
579
543
508
493
494
499
489
483
473
488
500
504
536
575
588
605
646
711
785
847
888
885
849
792
692
574
520
498
440
373
360
391
420
438
439
472
511
509
494
498
510
520
534
538
518
482
480
539
591
622
609
586
587
575
575
553
530
528
520
538
538
514
515
521
500
510
560
604
583
553
528
538
528
507
507
528
556
604
622
602
563
534
518
506
507
531
574
586
567
544
514
506
522
542
563
602
632
626
608
583
564
571
582
595
598
607
618
604
549
489
478
557
655
663
588
522
512
553
593
592
600
523
460
460
504
559
575
546
505
504
521
533
515
480
394
350
366
397
438
498
560
603
628
594
507
399
351
376
442
528
548
491
452
451
449
450
454
459
479
486
495
505
510
511
498
477
471
517
547
558
563
570
579
586
597
617
613
546
481
448
464
500
484
452
456
513
480
394
340
344
437
520
520
478
464
474
493
491
495
522
522
528
537
523
527
521
544
534
505
501
562
577
475
422
419
431
449
462
443
441
465
477
502
536
520
506
503
527
544
538
553
569
557
565
564
542
507
477
465
450
445
448
451
464
525
585
589
548
509
502
515
484
466
487
526
527
496
488
480
484
461
447
444
455
446
441
464
509
553
544
531
524
496
475
445
434
438
472
504
499
502
535
577
546
516
503
480
453
424
420
454
488
498
456
438
437
446
443
447
449
464
482
495
540
566
539
508
491
492
477
451
482
543
614
680
737
809
859
863
845
805
706
602
481
400
339
266
240
239
258
309
389
425
416
399
427
463
463
418
398
381
362
363
402
417
405
415
460
456
439
407
391
422
451
456
454
487
530
521
471
426
417
418
424
444
470
464
485
508
511
502
515
521
535
529
502
493
507
525
538
513
465
444
468
493
502
476
454
486
531
480
405
413
433
442
417
413
425
470
489
482
485
503
502
516
562
579
575
565
545
507
465
477
498
513
507
468
471
488
476
467
475
493
491
505
499
467
459
460
462
464
459
460
430
369
336
360
400
421
444
457
452
455
449
436
441
450
473
472
491
542
525
451
427
452
475
458
416
385
392
376
374
384
428
465
444
423
439
465
478
499
493
464
462
488
479
465
461
469
515
520
514
510
536
555
570
569
525
474
417
405
478
499
494
503
524
529
536
554
541
518
514
524
511
480
497
541
548
560
581
596
591
565
537
534
562
598
595
552
497
475
452
444
482
536
539
482
436
422
414
399
411
422
437
499
560
570
550
511
473
454
463
500
488
476
474
461
444
430
433
417
427
419
417
434
436
445
476
492
498
499
483
510
543
507
455
452
470
497
520
510
473
445
451
467
462
432
426
439
474
517
531
507
483
474
455
439
432
429
425
457
512
503
406
349
366
384
408
433
416
346
307
310
321
402
504
531
509
453
413
367
344
401
474
497
442
389
383
419
498
530
496
445
445
454
437
462
556
660
751
833
902
915
880
790
662
518
410
315
228
163
165
214
278
326
361
395
421
433
468
503
508
486
454
424
424
446
450
480
528
537
508
484
462
454
475
534
549
521
479
466
469
481
476
469
470
529
599
605
574
557
549
567
622
656
646
607
579
570
576
602
642
644
631
568
514
501
508
532
549
539
552
561
571
569
579
637
664
634
577
546
540
526
510
524
518
497
540
609
588
537
508
513
528
553
552
510
481
500
527
515
486
444
412
402
418
452
449
396
355
337
358
399
433
445
440
452
463
456
476
492
503
506
490
463
457
466
497
491
435
398
407
406
417
439
452
458
463
485
502
491
468
442
439
451
448
444
470
523
552
517
466
428
414
406
410
447
463
478
483
490
507
532
512
487
479
485
492
512
516
423
365
416
472
478
468
469
467
455
459
471
511
577
596
570
560
565
548
533
529
535
549
575
614
637
601
506
474
469
490
518
544
569
609
704
757
691
590
542
515
463
449
532
603
656
668
650
590
519
489
486
504
498
506
513
530
548
563
562
579
621
661
719
708
557
444
452
480
505
514
540
543
539
556
581
577
551
502
471
471
492
503
531
537
506
519
549
584
616
623
621
627
661
685
669
602
518
448
437
457
526
590
559
545
557
553
522
505
498
483
498
559
594
584
546
496
476
490
496
479
482
485
494
531
570
601
604
601
577
523
525
545
563
560
552
541
500
469
492
479
471
488
494
493
468
446
452
454
454
450
466
449
466
508
546
566
569
559
532
487
439
427
482
553
606
679
725
760
811
855
852
821
769
663
512
374
270
235
224
221
250
288
328
348
352
383
411
457
506
544
549
528
491
481
489
498
496
488
470
460
450
470
492
507
507
469
476
521
514
462
445
475
481
482
466
459
491
534
554
606
627
592
528
483
460
445
460
498
518
506
482
474
521
578
601
591
567
562
571
569
499
462
521
578
602
617
621
591
549
507
500
500
499
514
564
582
553
566
596
608
603
587
558
528
526
529
527
513
504
507
495
485
510
524
527
537
495
423
381
388
452
490
453
415
423
440
413
399
426
481
530
547
543
487
446
438
451
503
538
509
479
463
422
397
420
461
488
507
524
527
497
463
466
485
472
457
481
494
473
467
493
511
499
477
468
456
437
409
408
440
475
486
466
474
500
502
522
553
523
478
437
421
440
474
481
485
485
462
476
475
397
348
373
441
478
485
474
486
507
497
493
516
577
614
582
538
519
523
538
518
496
457
420
445
455
473
487
453
416
444
502
512
471
426
428
469
488
492
491
495
481
448
430
429
443
479
548
607
604
544
484
447
428
420
458
498
534
554
550
509
464
412
375
405
456
498
503
460
428
398
413
456
457
435
440
494
544
564
557
568
547
530
512
494
477
463
462
459
439
409
388
370
364
376
420
459
428
376
355
348
357
370
373
373
411
454
472
463
459
491
518
507
475
448
448
437
413
426
433
441
454
463
497
528
543
556
552
506
491
485
485
504
515
519
564
575
514
439
414
434
472
473
437
391
381
419
446
473
485
490
516
554
571
563
506
478
479
526
602
662
722
765
793
827
855
859
801
723
635
545
427
318
280
297
331
360
383
401
428
462
452
470
515
533
534
526
510
499
505
519
554
584
600
606
599
579
567
567
583
568
503
476
468
458
489
543
586
535
447
444
460
473
515
523
509
527
577
612
635
590
542
521
538
587
638
691
712
662
597
536
489
483
513
560
607
613
606
622
611
580
584
597
619
638
635
617
612
623
619
604
583
595
623
634
638
642
644
646
610
585
571
570
594
616
630
651
637
582
563
574
579
590
604
543
510
473
458
478
499
497
477
481
515
536
544
525
492
490
486
496
516
546
569
571
584
536
496
508
518
504
486
506
555
591
570
525
455
444
462
472
487
519
558
575
575
557
544
552
565
582
566
498
439
429
446
464
501
511
484
482
482
485
514
543
538
509
503
499
500
510
533
539
528
531
500
455
428
480
559
565
509
445
419
458
493
487
494
523
535
532
532
537
526
503
506
517
549
585
594
546
497
463
474
478
473
484
504
527
526
540
545
545
554
573
553
517
501
486
468
446
446
467
492
518
540
551
559
564
569
564
557
549
528
532
535
543
546
554
564
511
446
399
400
436
475
504
506
504
505
507
516
510
498
491
478
483
491
528
553
549
577
621
601
561
520
521
548
527
502
505
525
542
535
515
494
526
549
510
443
420
452
491
482
472
487
504
517
516
493
466
473
516
534
513
503
519
564
562
524
471
473
492
526
554
558
544
523
496
468
480
497
532
544
480
459
473
483
470
461
487
527
509
493
495
497
483
466
484
536
577
613
642
707
758
792
814
816
785
756
717
641
519
399
326
295
295
320
332
358
393
398
441
502
538
547
530
527
543
562
570
536
487
436
395
400
455
495
501
507
527
511
475
469
490
502
489
504
532
543
543
557
550
531
536
554
526
499
487
477
473
485
515
541
570
593
581
551
511
466
453
519
558
568
563
538
532
588
604
610
603
598
595
603
590
562
552
553
536
513
520
555
571
566
557
567
594
593
576
558
551
552
550
551
561
557
564
558
538
524
531
522
516
521
526
507
485
434
381
370
386
428
475
506
504
502
499
485
467
439
436
445
446
449
452
455
435
403
431
523
566
540
490
510
556
602
593
535
458
422
441
463
439
408
391
419
458
475
474
464
475
489
496
493
469
425
417
473
519
592
620
584
538
518
508
483
455
453
474
477
470
481
508
534
554
569
552
517
473
414
397
417
473
527
520
518
512
505
508
499
470
441
456
474
519
568
572
548
522
499
452
438
488
544
544
534
541
513
478
465
484
479
462
450
465
492
502
510
508
498
488
477
486
511
521
526
530
524
500
508
527
561
574
542
505
493
492
484
477
496
527
519
481
443
450
477
494
495
542
570
550
512
487
501
508
508
486
505
514
534
543
525
546
548
499
469
455
432
455
491
521
591
590
539
520
515
501
497
498
493
491
517
540
544
541
497
491
527
570
555
515
518
515
513
521
559
584
561
515
485
490
493
514
537
534
515
489
495
524
552
558
539
502
468
461
446
432
442
484
533
564
545
508
499
548
566
551
550
509
477
470
483
517
573
639
719
805
854
847
789
737
679
573
477
393
338
323
319
320
333
357
403
468
499
513
523
541
522
433
364
357
387
412
440
496
536
498
421
419
459
456
441
445
452
458
466
494
518
503
489
488
476
458
451
456
461
459
458
460
467
474
502
529
519
498
460
429
428
450
491
505
496
489
478
468
481
514
548
557
539
475
480
497
479
484
509
516
503
518
514
478
463
460
442
439
377
290
220
185
154
163
204
262
252
220
176
132
78
43
31
34
66
98
109
108
142
191
211
241
249
224
184
160
207
277
323
336
355
356
339
334
325
357
386
385
380
386
413
401
375
394
443
480
459
400
370
365
323
266
258
253
248
213
155
162
227
281
333
341
334
322
322
325
313
306
303
320
330
340
368
409
433
483
512
462
419
374
340
352
413
494
596
685
755
779
794
804
840
872
890
898
906
896
888
911
926
962
994
992
953
897
874
897
904
898
873
849
800
781
829
868
911
933
917
884
857
842
812
796
818
849
845
805
826
851
839
822
788
763
766
808
848
821
778
776
804
807
784
765
745
701
685
713
739
755
756
720
666
661
685
687
686
697
728
750
754
735
706
696
683
685
674
673
667
640
647
655
635
610
611
635
649
639
643
667
689
723
695
616
583
569
558
520
505
534
586
674
730
736
711
666
629
626
607
613
652
614
564
550
539
543
558
541
541
532
490
436
377
312
237
186
150
109
66
36
32
67
115
114
128
123
110
124
152
175
178
156
149
128
115
126
146
152
174
249
348
430
447
476
521
537
533
514
475
405
322
231
119
63
33
40
78
110
142
219
271
293
327
373
432
460
429
410
413
421
426
441
486
536
550
582
577
538
503
499
489
500
518
541
570
595
610
625
613
575
551
584
640
691
717
701
679
681
678
632
614
670
727
727
713
693
663
676
726
752
731
680
669
670
689
725
774
805
772
713
668
636
625
685
761
783
794
797
792
750
752
775
792
810
804
781
775
756
730
739
773
768
741
736
739
715
707
699
657
658
686
680
645
616
597
600
624
643
647
653
610
547
500
467
487
552
623
660
667
642
587
549
549
606
622
601
572
550
539
540
557
595
618
626
622
609
584
521
493
519
547
576
622
648
621
559
544
550
557
565
579
585
581
571
576
592
610
626
611
599
588
576
577
604
610
585
566
545
549
526
479
465
501
525
536
521
494
504
541
555
558
559
571
562
549
545
549
568
585
606
626
614
573
549
572
589
595
574
528
493
469
449
454
505
516
483
467
489
523
499
495
520
528
504
459
440
446
473
506
538
527
525
539
534
517
506
523
528
524
519
516
498
455
415
427
439
457
467
476
484
487
470
470
494
500
483
454
480
504
488
496
508
511
517
506
492
483
475
479
522
561
555
516
499
506
509
506
526
549
564
549
547
555
552
540
524
504
549
625
652
604
526
490
524
571
572
538
521
515
504
508
541
559
536
505
485
493
490
487
487
476
462
446
438
431
438
441
448
463
469
478
527
563
553
560
606
694
764
803
797
733
647
541
425
327
269
238
232
264
324
388
420
437
435
433
451
459
486
512
534
553
578
610
597
516
501
502
487
469
457
491
533
561
564
541
524
515
505
498
503
522
541
549
565
554
528
507
541
571
560
532
548
554
523
462
393
379
406
422
432
453
465
476
480
474
485
477
462
478
499
511
511
522
513
508
498
532
568
550
496
497
523
535
548
559
532
500
478
468
492
538
542
514
512
549
515
449
415
446
501
511
522
527
519
514
512
497
447
422
419
421
432
408
412
432
449
458
446
432
420
385
386
391
415
436
442
419
386
392
441
460
469
477
469
439
418
401
396
425
437
421
412
408
411
439
477
520
553
547
516
464
434
452
490
510
504
483
443
446
505
461
398
387
417
444
473
498
488
491
530
520
509
528
545
561
558
550
527
497
491
515
516
511
517
532
516
453
405
428
443
438
427
447
497
566
581
525
446
409
400
397
441
525
569
574
534
502
493
498
502
502
498
500
488
450
425
457
478
483
503
517
511
466
427
428
457
491
550
607
571
454
391
379
399
439
467
471
490
528
566
576
535
513
516
521
516
540
535
503
473
532
625
650
622
558
516
513
506
515
537
532
505
501
521
523
518
488
479
491
492
498
501
508
518
530
554
570
571
570
551
518
492
471
463
473
485
479
439
407
416
462
491
537
561
533
504
501
531
563
530
483
439
405
393
409
455
501
577
610
637
713
796
845
851
824
801
755
673
548
474
426
366
333
307
312
345
393
425
427
417
383
344
342
351
344
341
335
285
256
273
295
291
306
312
301
285
295
333
359
374
389
400
416
450
469
496
552
628
653
619
558
514
512
540
567
583
575
552
523
531
533
552
591
597
604
592
600
604
604
607
648
706
736
714
707
750
805
834
859
875
870
882
920
954
997
1023
1023
1023
1012
961
944
960
984
993
998
953
904
863
822
798
788
790
808
807
778
770
743
743
758
751
724
716
734
740
747
752
784
805
804
780
735
680
686
751
807
806
741
650
598
598
627
654
695
667
607
582
596
611
636
680
718
723
723
711
728
741
754
783
798
832
889
945
991
990
943
890
859
884
946
951
907
879
863
859
896
940
963
958
966
995
1012
1011
1004
1009
995
966
959
967
945
918
885
866
871
850
809
770
751
764
796
831
847
850
827
761
700
662
681
702
666
577
530
531
570
560
553
574
614
648
678
719
760
786
821
868
901
910
892
905
928
908
874
854
876
948
964
906
838
782
736
707
666
638
603
542
481
404
268
141
75
41
23
13
8
11
52
140
254
334
374
366
385
429
499
553
599
655
691
695
724
782
822
832
828
819
818
843
881
879
886
909
926
945
936
932
923
902
917
952
947
917
920
938
932
925
944
981
978
925
845
762
704
687
714
783
799
743
684
652
647
653
645
638
628
576
494
419
423
482
560
618
650
679
703
716
709
703
679
609
501
368
236
125
67
36
20
12
7
4
3
2
2
2
1
1
1
1
1
1
1
1
1
1
2
4
2
1
1
11
48
86
90
48
24
13
7
6
47
90
89
68
36
45
76
71
46
24
13
7
5
17
9
5
17
46
78
132
150
87
43
22
11
6
27
18
9
6
10
72
141
142
97
55
28
15
38
91
131
108
55
30
17
11
47
102
126
114
97
76
55
41
75
94
102
114
153
171
160
134
124
138
170
185
168
183
195
204
203
207
194
207
211
198
175
158
182
236
285
296
296
273
246
201
170
154
201
263
257
205
152
141
179
226
246
236
220
210
224
250
267
235
190
155
132
131
133
139
140
116
90
89
88
91
75
73
63
48
48
92
152
181
176
149
126
141
202
287
298
232
174
182
235
275
260
200
218
252
240
257
330
414
430
422
389
368
383
386
362
352
381
409
385
349
344
359
379
408
437
451
437
419
410
416
404
399
410
381
337
316
333
365
405
446
492
483
419
373
341
360
400
432
458
495
502
449
398
377
400
429
420
392
386
392
373
388
403
423
443
453
462
479
448
432
491
541
530
540
532
530
531
533
545
539
566
602
624
630
619
618
626
663
687
695
692
683
674
656
618
596
591
593
593
572
571
599
628
635
656
656
584
540
547
557
495
453
447
438
414
384
383
431
467
487
491
481
457
453
480
487
439
394
400
443
463
445
410
417
444
474
543
604
668
732
780
863
927
891
805
713
593
475
396
359
362
366
397
451
510
539
605
631
610
628
652
655
667
687
683
659
646
645
666
698
713
701
672
661
639
601
590
623
645
623
571
501
462
445
465
470
497
543
598
639
646
606
583
547
520
515
487
460
501
549
572
569
560
578
569
578
580
567
553
585
653
703
696
677
655
644
669
691
693
704
708
724
773
803
780
710
646
608
573
548
567
605
616
611
609
645
678
673
644
621
616
613
594
567
527
502
484
526
596
614
608
592
564
574
561
532
495
490
500
527
527
499
503
533
565
604
584
545
517
504
484
460
478
503
526
555
564
557
537
534
540
553
570
610
620
597
593
583
583
640
706
709
681
648
619
605
615
625
625
618
602
598
586
586
602
588
565
550
537
520
519
552
611
626
580
567
532
496
528
583
611
561
472
413
391
431
488
553
585
558
530
529
524
527
567
607
624
644
655
627
629
620
617
644
675
668
625
586
554
571
611
593
532
496
487
495
490
505
545
567
597
643
659
637
596
573
568
557
542
542
568
573
543
526
523
535
559
598
635
630
587
559
579
624
673
658
586
535
524
555
611
644
658
672
658
625
594
566
564
598
630
634
597
560
581
610
620
627
611
588
611
636
621
599
623
651
656
619
557
506
486
505
502
468
436
404
369
363
368
379
379
346
311
302
284
275
271
269
290
336
380
388
365
323
307
307
311
326
356
376
394
409
443
484
552
598
627
641
679
725
737
733
734
741
697
604
501
413
350
322
366
441
475
478
476
460
454
482
484
495
544
613
641
584
523
501
507
512
509
528
559
541
450
418
453
496
524
538
494
429
430
431
420
453
507
506
485
444
408
402
407
445
492
520
494
433
402
426
458
485
497
491
484
485
484
494
491
499
519
492
466
444
425
419
441
478
467
451
431
412
396
411
432
413
413
432
399
368
372
408
458
490
497
485
478
463
438
420
434
480
486
492
494
498
499
493
518
531
491
434
417
387
374
401
454
496
487
461
414
379
361
377
407
433
446
420
379
373
382
389
404
429
445
441
407
389
398
405
397
397
435
468
435
397
396
465
499
381
288
275
300
327
306
267
260
304
380
441
438
393
348
313
317
385
445
475
470
475
471
447
451
472
470
461
449
456
476
482
467
463
461
470
466
430
400
408
467
516
541
574
580
526
446
397
404
435
443
438
426
426
447
488
510
520
526
509
459
425
414
432
467
467
447
427
387
379
403
430
427
406
431
446
412
392
388
402
447
475
468
445
416
397
379
376
417
460
540
565
516
497
507
518
542
575
616
632
604
531
459
456
497
543
573
586
559
518
502
555
624
649
630
559
493
467
456
478
523
562
581
550
511
501
516
514
514
585
688
732
684
591
504
472
520
575
604
605
607
590
513
453
469
502
533
564
571
558
527
490
505
519
510
492
488
490
489
512
560
582
579
537
479
465
473
480
488
571
630
594
527
483
463
463
512
594
606
560
509
500
526
575
637
697
748
770
746
704
652
569
466
418
430
409
336
286
285
326
403
455
464
464
454
451
459
419
407
491
541
481
377
314
287
291
319
351
391
394
357
322
339
401
446
456
455
466
461
424
410
451
507
527
517
506
495
459
422
435
465
497
520
502
456
421
433
490
571
609
598
565
494
429
405
436
462
475
513
581
573
489
423
425
499
544
552
536
492
441
410
409
450
505
581
610
589
534
483
478
498
468
454
466
497
487
431
407
443
493
496
477
468
479
517
507
457
399
362
376
393
410
420
427
423
443
474
490
495
464
403
393
433
445
420
415
426
397
371
379
403
434
466
478
485
469
455
445
479
580
659
596
485
421
375
352
354
386
428
466
473
461
467
492
510
514
507
518
497
433
404
415
402
411
436
452
422
416
423
432
467
502
510
473
452
443
431
456
514
544
524
507
489
451
439
464
477
461
448
419
395
404
388
385
394
384
364
344
314
293
288
289
285
292
330
325
278
221
176
152
157
179
216
245
236
218
164
124
145
192
228
183
139
129
124
141
158
168
190
198
187
160
140
101
79
121
189
249
266
248
229
238
271
262
259
292
329
322
310
324
335
329
311
301
273
275
323
363
387
386
362
322
278
226
201
245
323
398
404
373
302
261
289
307
314
326
338
330
327
358
383
391
371
324
310
365
396
376
390
411
456
461
391
329
341
379
382
428
493
505
490
483
470
447
429
433
444
504
536
545
551
543
507
486
510
549
584
594
590
547
528
543
594
632
623
637
683
703
667
608
569
578
595
643
677
660
647
647
682
734
763
768
769
820
868
910
938
919
856
753
646
570
523
458
412
443
496
527
552
600
642
660
617
547
520
535
555
567
615
650
693
748
755
719
687
674
687
690
642
627
635
655
667
679
693
727
790
843
830
791
718
640
609
649
713
759
760
719
686
693
726
739
748
772
788
764
736
700
689
710
740
745
766
794
790
745
717
706
706
727
734
738
742
714
717
719
726
721
717
735
739
700
659
661
690
739
763
754
753
730
705
686
645
645
655
666
659
651
663
684
732
773
783
750
678
601
568
553
568
604
598
587
573
553
552
552
568
594
598
592
605
651
678
680
659
645
632
594
560
545
560
592
615
624
629
598
545
494
486
550
608
639
646
624
598
581
605
623
610
602
615
584
556
549
558
553
552
558
582
578
546
530
536
559
578
576
570
561
550
552
543
544
572
609
634
621
579
545
568
625
671
703
697
655
597
609
635
625
578
585
604
588
537
518
549
584
623
686
709
681
636
574
536
549
565
584
604
620
605
566
540
556
585
603
589
573
586
617
616
608
593
595
610
601
561
527
530
566
586
601
638
628
569
524
517
527
551
588
602
604
604
579
537
562
597
600
559
523
540
571
593
599
592
585
592
591
591
576
569
581
593
606
593
563
548
531
552
615
663
649
582
536
540
557
571
597
629
642
640
611
584
563
552
565
584
591
578
560
529
522
515
540
595
604
576
569
538
551
602
602
583
545
527
516
491
483
491
537
566
581
604
629
632
608
577
556
565
579
597
607
586
569
577
552
572
602
579
529
461
415
386
391
443
503
538
547
525
527
537
556
597
630
630
604
580
579
604
669
740
766
815
874
867
814
763
713
652
579
503
429
361
352
334
344
368
357
333
331
347
395
473
530
588
596
559
526
500
545
625
669
651
599
557
499
447
427
453
520
583
595
571
538
510
459
478
559
582
529
484
468
482
515
522
543
581
613
610
586
564
559
569
582
571
553
543
524
517
527
548
557
550
541
558
581
583
572
587
598
572
548
558
561
529
508
523
540
560
578
590
582
557
519
540
572
586
572
565
558
565
578
589
596
598
613
588
539
489
470
474
527
561
562
563
567
549
509
499
491
508
540
527
472
454
461
483
507
519
541
542
526
513
488
479
510
546
565
564
531
495
482
485
505
532
547
553
557
575
547
497
471
489
512
527
540
522
452
398
417
471
490
509
522
562
602
604
592
559
542
548
557
548
537
544
534
524
551
574
541
515
526
551
536
498
491
480
477
478
476
474
464
459
493
486
455
473
499
515
528
522
511
534
541
546
571
586
585
558
531
501
483
472
455
468
496
530
568
609
593
516
475
514
535
516
508
515
502
482
470
478
483
499
526
536
520
474
465
491
509
528
528
518
503
520
526
511
522
555
551
504
491
500
519
535
533
527
538
508
488
500
515
549
588
578
528
494
485
490
506
512
527
548
575
582
583
565
522
482
510
577
613
604
557
486
453
462
482
495
533
567
553
525
531
533
516
482
462
472
476
464
492
544
550
537
557
545
524
554
575
571
577
595
590
565
535
509
503
512
526
534
549
565
593
574
552
569
567
554
537
506
492
514
521
525
547
584
613
579
516
509
532
515
480
485
485
476
478
494
555
646
750
848
911
920
898
837
740
633
531
418
331
294
278
293
320
376
427
432
424
401
399
376
355
390
470
551
587
571
536
543
545
529
536
502
464
494
536
509
494
526
565
591
598
564
541
556
531
496
498
508
526
548
544
539
547
573
561
523
503
490
465
458
486
553
600
609
602
587
562
555
539
542
569
593
608
592
581
589
567
578
566
548
565
563
556
566
557
528
487
471
510
587
643
665
636
613
573
553
579
577
570
565
573
604
644
648
598
530
490
496
522
528
527
552
528
458
417
428
445
459
474
470
495
503
482
442
443
484
513
523
536
502
