395
431
500
536
524
487
466
430
414
422
443
481
496
466
422
387
388
387
400
421
404
365
352
363
414
484
557
646
732
812
912
1006
1023
1023
1023
1023
950
794
630
509
441
397
391
390
377
359
336
311
298
323
373
419
405
357
335
321
322
360
393
414
421
407
393
389
369
363
405
444
450
434
388
346
368
436
474
480
455
425
402
372
386
447
501
520
522
497
456
440
438
434
447
481
489
457
421
401
407
443
486
508
500
460
440
440
442
453
483
521
534
519
471
451
462
488
544
588
575
532
485
461
448
444
510
575
560
508
458
459
480
507
538
554
556
533
491
455
446
493
544
571
568
549
519
507
476
479
514
537
524
514
466
433
436
438
475
521
521
491
447
421
445
463
495
519
522
494
461
451
438
470
514
534
517
477
456
433
414
441
498
543
558
535
463
439
474
500
510
532
547
527
473
439
433
469
532
550
541
528
521
487
459
477
518
554
559
548
527
485
480
506
544
584
597
572
528
501
490
518
548
547
544
535
507
489
511
548
559
551
546
531
499
476
456
473
538
581
577
556
529
498
474
458
494
541
573
565
506
461
458
474
506
527
543
546
517
473
459
475
511
538
560
528
489
461
433
438
453
450
461
463
433
402
409
424
453
479
487
469
449
442
422
412
444
462
482
496
468
447
457
453
470
492
501
517
502
462
443
454
486
533
555
528
494
488
511
537
549
548
539
514
524
516
499
512
525
535
526
530
510
459
427
448
502
535
546
543
515
463
439
450
473
505
527
543
494
438
440
440
464
492
528
546
510
482
467
472
495
536
562
523
461
415
396
403
446
486
524
529
518
531
599
703
845
1006
1023
1023
1023
1023
1023
1023
920
801
694
591
520
469
407
366
373
401
423
430
383
337
325
346
389
440
468
426
384
342
318
339
398
441
448
429
412
384
362
365
401
473
484
470
433
401
392
418
484
526
519
477
452
419
403
427
464
510
532
521
483
437
419
448
481
518
523
497
491
497
480
481
490
510
541
569
568
527
499
513
531
543
556
560
551
509
471
482
529
576
593
571
531
502
497
511
547
589
599
586
573
546
539
550
567
591
602
598
567
530
527
541
580
611
610
579
531
501
502
530
567
582
585
572
548
512
481
485
510
544
560
524
488
470
463
462
493
527
521
496
469
442
439
445
484
538
555
535
499
482
472
482
514
541
548
510
457
423
409
431
473
520
545
540
489
446
448
458
475
524
553
573
523
455
442
459
485
526
561
570
534
486
468
494
533
561
564
542
508
470
451
477
526
577
608
581
516
497
465
450
466
529
568
558
539
503
474
443
473
532
566
557
522
513
496
484
497
538
566
549
506
472
472
531
543
540
555
540
516
493
477
475
497
529
546
542
533
505
469
460
480
535
583
574
529
483
473
490
505
534
569
583
559
497
465
462
471
504
547
579
570
513
470
472
500
549
580
577
564
544
530
517
531
577
600
563
518
520
550
549
549
581
586
585
576
558
527
516
548
608
615
564
529
497
479
473
497
516
500
506
516
510
492
469
489
517
541
551
513
461
430
433
470
492
517
524
488
462
456
466
488
525
539
545
529
494
481
478
485
506
507
486
444
393
392
418
446
498
551
622
703
781
856
948
1023
1023
1023
1023
1023
985
826
692
583
535
507
470
428
384
344
340
332
341
352
347
316
285
282
305
327
357
385
384
365
348
321
312
339
375
394
427
413
387
363
345
350
409
473
517
483
431
396
398
442
459
469
459
438
419
392
400
429
487
508
502
484
453
432
425
450
490
516
541
542
494
459
448
470
506
549
565
532
484
454
453
476
509
523
526
537
515
493
477
487
518
575
614
585
517
481
492
529
552
557
545
530
529
503
474
498
547
575
554
526
529
534
537
544
574
619
601
546
503
475
488
532
576
587
552
509
495
489
465
447
461
493
517
506
468
433
436
440
455
494
506
494
472
437
433
484
527
539
528
485
445
421
415
450
487
506
519
506
470
441
432
445
475
516
507
486
461
426
426
468
515
549
535
500
470
439
445
487
529
536
530
494
450
480
489
480
501
535
545
520
478
434
430
461
490
512
524
534
488
454
450
472
495
523
532
526
488
471
474
470
492
522
533
522
480
436
422
438
464
497
533
514
485
488
474
470
493
520
535
504
444
413
428
473
491
518
550
547
510
481
471
471
475
504
524
511
476
452
449
473
521
540
550
521
484
477
461
454
489
503
509
512
509
486
472
482
524
562
559
542
521
495
488
482
498
543
568
575
565
541
564
579
589
595
607
583
546
517
488
491
537
559
567
568
541
493
457
439
464
488
518
523
479
440
420
447
475
509
544
544
508
460
449
454
469
486
498
500
480
470
451
459
486
517
543
540
514
481
480
486
458
422
409
395
400
425
453
495
585
715
864
984
1023
1023
1023
1023
1023
1023
940
803
673
558
458
383
370
364
353
353
325
273
230
213
227
248
248
244
232
223
218
203
214
229
256
289
272
228
217
228
249
296
326
301
278
279
282
287
325
368
375
345
327
319
325
347
377
405
422
411
385
369
348
351
396
445
454
437
415
394
368
376
422
478
509
512
480
461
442
445
481
513
525
526
516
487
468
456
475
509
547
566
537
515
502
509
544
576
596
599
556
506
486
509
554
588
614
619
595
554
543
551
584
635
671
658
609
546
519
521
582
621
623
594
569
546
540
535
549
568
568
549
518
491
489
496
532
548
533
521
501
493
486
483
513
549
561
541
502
467
440
430
464
500
527
512
502
510
500
490
517
579
574
491
448
443
444
449
474
503
538
537
506
469
464
501
528
557
580
546
493
471
488
503
526
551
555
539
527
505
479
477
522
584
604
550
503
491
433
412
462
517
538
537
515
494
490
500
525
541
571
577
552
518
522
526
549
558
555
537
515
499
491
491
518
539
540
540
539
522
492
471
476
522
555
566
553
515
484
482
514
566
575
556
550
539
534
531
543
545
553
559
546
514
493
488
520
583
617
610
586
549
509
509
535
562
599
608
590
568
534
525
555
593
614
625
603
578
573
585
601
633
643
647
612
572
539
510
510
527
557
558
535
502
483
501
513
535
547
534
514
500
479
470
475
497
530
529
503
465
440
456
493
512
508
521
517
497
482
479
485
497
503
508
514
482
449
409
400
425
475
488
473
475
526
622
740
862
978
1023
1023
1023
1023
1023
1008
903
783
657
550
462
406
381
375
388
404
401
383
348
320
312
331
371
415
409
369
353
356
352
389
455
475
469
456
427
390
399
419
461
493
511
508
492
459
441
456
494
527
516
502
487
444
424
480
516
527
536
525
490
452
446
466
496
521
521
502
491
460
434
435
475
528
530
515
481
459
432
413
440
490
511
518
493
463
440
458
473
501
526
537
505
468
464
478
507
512
510
509
489
471
461
480
530
550
531
527
522
495
470
468
495
515
518
510
484
448
434
437
453
476
482
476
458
442
427
431
462
489
510
503
457
413
384
395
433
461
477
478
465
453
449
427
442
490
506
476
461
442
426
434
463
499
530
523
503
475
452
456
497
528
550
531
483
457
468
502
517
537
523
493
469
447
440
467
511
547
530
490
460
440
433
446
483
521
535
513
474
460
470
471
492
501
494
498
491
460
465
497
517
513
486
487
479
437
418
427
451
482
495
478
442
415
419
448
476
495
501
484
453
442
454
470
496
519
523
504
474
451
454
482
481
488
488
472
457
443
443
444
458
465
481
495
488
445
415
415
454
495
509
483
467
453
449
444
483
521
517
492
467
443
438
458
473
497
507
504
493
485
493
518
525
513
523
520
494
464
457
477
505
526
527
505
478
446
415
411
454
492
479
440
416
397
398
408
421
456
464
449
436
423
400
414
437
451
472
461
432
410
406
391
404
459
495
487
447
415
406
420
447
457
444
434
423
392
360
380
427
485
547
616
686
787
893
996
1023
1023
1023
1023
897
753
630
532
476
446
421
380
348
333
344
326
316
345
366
356
339
318
301
303
325
351
385
378
368
356
337
341
369
398
424
437
434
418
393
375
372
398
435
444
418
390
365
368
415
462
480
469
455
429
405
409
443
453
466
480
485
464
422
421
442
457
457
451
458
449
434
459
477
489
508
515
505
463
425
436
477
526
536
505
469
454
472
491
509
518
523
518
522
519
495
484
499
537
551
538
504
467
468
491
504
539
567
555
526
481
479
508
514
514
547
547
519
489
455
446
475
496
515
507
459
443
436
433
449
465
482
496
472
434
425
432
451
481
493
480
444
420
413
416
425
465
487
474
452
440
423
420
437
456
477
472
464
446
425
437
463
494
505
504
480
448
427
432
453
496
516
507
482
461
446
451
473
507
526
518
508
497
466
444
446
478
518
525
497
488
475
476
493
504
510
527
510
473
437
448
486
526
545
554
527
492
473
459
468
497
512
515
511
466
449
450
466
495
535
537
507
478
467
463
481
514
537
527
514
511
483
479
492
509
511
490
466
462
464
465
492
521
522
487
486
446
435
458
492
534
555
552
509
469
463
490
495
501
520
514
521
525
498
500
527
549
568
577
551
523
512
532
544
539
539
532
522
508
484
461
470
514
544
556
541
484
446
426
447
471
497
523
514
485
462
454
450
464
475
480
468
437
430
464
495
511
525
524
510
480
451
442
470
501
510
497
479
455
423
415
418
447
472
513
545
570
632
728
816
927
1023
1023
1023
1023
1023
910
777
674
604
535
467
419
393
381
391
417
408
372
356
341
323
340
384
414
398
376
364
344
352
392
428
440
445
437
423
404
393
391
389
426
441
438
430
430
417
414
444
458
481
486
473
452
420
399
423
472
509
507
491
470
453
465
470
487
511
520
510
480
461
460
475
495
511
511
491
472
463
467
488
514
519
534
521
492
471
489
514
546
565
547
520
507
497
492
506
541
552
553
544
527
508
505
504
522
566
570
536
507
483
470
503
542
556
561
555
513
466
452
479
510
517
503
502
483
469
442
443
489
528
508
485
469
459
443
437
463
469
458
462
456
434
416
428
445
460
482
493
471
452
441
438
450
471
514
538
506
469
434
431
467
502
516
500
481
458
426
427
434
457
466
469
477
458
453
463
482
503
536
539
528
489
462
466
485
498
506
502
489
482
490
495
501
522
522
498
476
479
487
479
474
493
520
535
520
495
492
502
511
523
515
501
473
468
470
500
501
498
513
507
505
512
507
482
475
505
521
507
480
465
458
479
512
526
525
512
494
484
473
451
471
510
527
509
487
450
424
455
517
542
540
542
536
514
499
482
469
490
513
501
483
487
493
472
473
520
549
556
531
478
440
474
542
602
631
605
582
549
512
505
546
572
574
556
534
505
485
490
491
523
527
494
463
452
457
471
497
508
499
507
509
489
464
471
471
470
506
526
506
498
479
451
458
502
510
505
509
475
465
481
511
534
545
523
470
427
408
403
431
463
509
556
604
676
770
844
936
1023
1023
1023
1023
1023
892
777
709
663
591
518
461
401
341
330
367
396
423
423
407
372
350
344
353
404
426
409
379
344
315
341
392
425
436
442
424
402
393
409
432
454
466
455
430
424
423
428
454
466
468
462
466
431
429
481
508
502
501
474
437
412
425
442
458
495
513
517
501
459
445
459
503
519
521
544
508
468
454
469
506
535
553
556
534
513
494
494
515
537
544
541
529
489
458
451
480
530
556
585
578
531
504
497
535
564
546
543
516
479
478
486
519
559
579
590
561
526
504
489
516
550
552
565
514
465
463
450
453
476
476
472
465
456
459
476
473
476
494
476
440
435
438
435
420
443
494
514
483
452
437
444
466
473
480
486
476
456
441
445
464
484
494
503
489
473
455
432
456
478
500
504
503
500
467
464
481
483
506
506
509
497
449
441
480
517
538
524
503
480
454
464
501
536
557
564
533
488
478
482
487
494
488
512
522
504
476
478
494
507
522
528
510
502
501
480
487
492
484
479
469
441
430
446
461
482
513
494
464
434
405
406
429
452
478
505
472
442
438
440
453
475
498
487
463
454
463
466
463
460
480
504
500
482
461
458
492
502
492
492
497
481
472
478
484
491
496
504
507
496
492
503
510
539
556
536
511
497
522
536
534
554
579
601
603
588
579
583
569
567
567
548
527
520
528
550
555
535
545
545
510
490
476
458
482
520
525
517
524
534
509
490
494
527
561
559
541
510
474
473
501
530
535
538
533
511
489
483
523
534
517
526
509
468
433
430
448
463
473
499
528
547
590
687
818
940
1023
1023
1023
1023
1023
1023
973
863
750
643
556
478
400
357
363
391
422
430
421
387
338
317
322
351
396
420
421
396
378
359
339
365
400
405
384
389
421
431
420
431
417
414
417
414
402
401
411
429
452
455
436
414
416
414
428
443
470
492
476
445
415
414
440
470
492
506
472
429
424
436
454
477
500
509
493
479
461
453
459
488
522
525
503
485
491
488
497
530
543
536
533
520
509
507
516
546
548
522
507
504
506
465
451
505
552
557
532
496
489
495
484
502
524
544
535
505
479
482
499
522
534
549
549
544
488
440
435
441
458
484
476
434
421
430
434
444
469
463
434
414
417
426
436
455
493
500
476
434
406
417
457
466
481
489
483
452
426
417
438
472
491
493
477
464
427
401
400
422
451
485
503
479
479
467
435
442
476
494
478
457
455
472
490
498
521
525
505
477
448
429
436
476
504
528
512
489
466
454
478
517
532
510
485
455
438
445
469
499
523
529
501
467
451
449
479
498
507
515
487
459
444
474
478
483
516
522
503
473
437
435
456
475
511
532
517
469
438
428
419
450
499
520
506
465
427
443
473
492
496
490
494
505
489
470
455
485
542
553
533
521
504
488
481
496
504
542
563
537
503
481
480
494
526
532
531
526
528
533
526
526
563
576
539
541
554
555
577
573
586
607
596
562
531
517
501
510
562
586
564
525
495
473
458
477
518
536
536
520
487
469
467
475
491
487
478
456
447
428
425
476
517
504
488
489
475
455
438
448
495
538
532
483
466
470
462
453
446
435
424
393
355
359
403
473
574
683
778
872
962
1023
1023
1023
1023
1023
963
796
654
539
469
446
421
403
399
368
325
313
303
304
333
351
359
353
326
299
292
329
387
412
419
383
336
320
334
369
404
420
430
447
428
405
390
400
421
442
453
450
447
454
461
463
454
451
456
454
446
429
424
430
459
493
489
451
432
433
442
454
488
509
496
485
483
469
460
482
529
562
558
523
500
496
514
521
531
552
538
515
467
436
456
504
546
584
568
548
540
528
527
534
551
561
548
535
514
497
504
537
585
621
618
576
495
479
485
509
541
560
573
551
514
478
463
470
503
524
530
493
463
475
494
522
526
509
492
514
533
516
436
412
430
460
480
460
435
433
424
454
482
481
476
459
433
414
416
444
468
460
470
480
466
472
478
509
518
504
493
488
468
432
420
430
459
485
496
489
462
439
459
467
488
487
478
479
477
478
475
492
512
518
515
490
460
452
469
492
508
532
526
493
467
468
466
485
514
540
534
515
481
454
447
456
487
525
534
531
492
449
435
451
493
515
504
483
462
464
463
461
475
484
497
484
465
442
433
438
450
474
487
469
463
436
401
400
427
446
453
447
422
395
393
404
413
416
422
416
379
359
352
352
364
374
355
322
313
304
289
289
302
312
302
282
272
259
263
279
338
353
347
335
294
260
286
358
421
450
455
429
410
421
429
435
425
444
491
479
444
418
409
401
421
436
437
441
442
419
398
413
457
474
493
505
473
434
428
443
484
541
535
479
460
452
455
482
503
506
505
498
481
462
445
450
464
481
491
495
438
394
387
405
453
517
589
650
715
804
925
1023
1023
1023
1023
1023
1023
1023
875
746
659
584
526
509
487
445
397
383
408
446
464
468
457
451
435
428
455
489
495
499
488
479
491
521
558
590
592
553
510
495
491
519
556
611
617
575
550
523
511
522
560
592
617
594
544
511
508
528
561
595
602
590
579
571
572
586
602
624
643
626
600
581
555
565
568
574
591
618
633
607
561
537
572
611
624
625
593
566
575
591
600
605
609
628
642
612
585
604
628
655
649
641
621
575
559
547
572
599
636
651
632
583
543
547
576
593
604
601
562
544
563
552
530
539
536
518
507
503
493
492
497
497
481
480
467
432
403
412
424
437
465
493
450
410
384
410
458
481
461
430
412
413
414
417
444
474
478
460
448
440
423
413
422
452
458
456
441
424
417
412
424
456
480
481
485
451
423
435
461
492
489
473
450
435
443
461
477
490
488
486
476
458
467
463
465
475
490
505
492
454
453
460
464
453
491
526
536
511
471
451
464
480
499
513
514
502
486
483
494
511
528
530
497
475
469
487
515
532
539
532
510
468
448
468
492
517
538
506
486
486
486
516
522
506
512
549
559
520
522
548
529
525
536
540
525
495
489
505
539
574
572
562
550
520
501
503
529
548
569
573
553
550
561
563
581
615
639
613
579
552
509
472
486
521
562
568
540
512
473
473
495
515
516
507
488
465
458
450
458
475
495
509
507
465
441
433
455
489
496
489
479
490
503
498
507
533
536
531
508
467
434
400
408
429
447
491
538
572
667
792
933
1023
1023
1023
1023
1023
1023
987
869
769
642
551
477
413
367
327
314
331
341
329
332
343
349
379
377
375
390
371
335
332
354
373
386
403
442
461
444
432
416
417
426
455
491
495
473
468
466
466
480
514
537
530
510
506
509
514
508
514
544
564
553
509
481
478
513
558
574
551
518
518
542
580
594
588
593
583
549
528
542
521
524
573
590
559
547
526
528
552
560
554
576
589
574
550
532
537
554
586
587
596
606
570
529
528
565
593
601
580
560
547
535
542
570
555
547
532
524
519
494
494
525
552
575
570
555
518
483
474
473
490
512
518
510
462
438
429
457
482
488
479
473
461
441
437
439
448
462
470
478
471
452
435
453
491
514
497
480
444
424
431
458
497
509
501
489
461
439
446
476
494
468
476
485
493
485
474
475
491
512
517
508
480
469
452
480
528
532
527
513
498
478
479
516
539
538
524
497
467
454
458
478
493
519
543
524
486
476
467
480
505
531
525
504
467
452
475
496
533
544
525
506
481
464
490
521
548
554
530
510
485
470
482
478
487
495
492
496
496
508
518
517
515
524
519
517
491
464
478
497
525
532
546
550
522
493
493
501
537
571
565
544
523
512
533
545
562
585
577
541
510
481
473
476
495
528
513
486
444
416
419
449
475
478
482
482
469
443
415
394
411
479
520
504
475
428
425
431
442
466
478
475
468
472
463
464
469
479
459
405
369
340
348
380
427
500
601
713
823
929
1023
1023
1023
1023
1023
1023
920
750
640
539
486
464
418
389
374
357
352
345
339
346
353
359
350
337
342
364
383
381
388
399
391
366
363
369
392
406
419
435
425
390
407
431
458
467
471
446
438
425
418
413
405
437
450
434
422
408
415
451
478
473
477
481
467
450
453
464
472
490
484
491
504
505
511
514
517
534
557
525
473
424
428
437
463
513
528
530
520
470
464
467
484
517
543
551
539
511
485
468
479
504
516
529
534
521
510
531
549
576
569
555
543
520
478
478
504
531
548
565
567
543
521
512
522
529
530
528
496
478
489
496
479
480
505
498
486
466
447
455
470
477
491
520
508
467
434
416
432
480
509
512
501
483
461
471
488
501
496
470
470
480
454
447
459
469
479
484
480
467
453
438
449
474
485
506
504
472
456
465
490
497
518
527
518
493
443
438
468
487
495
496
498
501
495
477
488
505
504
491
468
465
466
468
488
500
509
512
502
487
463
445
468
492
505
498
502
512
478
459
493
522
526
519
502
496
475
478
498
525
545
537
528
493
480
505
524
548
568
558
528
502
487
526
551
557
567
555
536
536
551
559
573
600
609
599
590
568
557
548
531
520
525
520
502
473
464
470
462
461
472
467
472
469
451
446
466
495
494
470
445
441
461
473
480
482
468
466
478
478
464
458
464
466
464
464
459
427
401
369
373
412
463
486
497
570
677
812
955
1023
1023
1023
1023
1023
1023
911
780
674
577
479
421
382
349
337
346
349
359
366
368
340
306
297
311
341
369
375
361
331
301
313
338
354
370
379
357
347
335
315
349
391
403
399
394
368
339
326
363
405
404
382
379
372
359
345
355
380
382
401
391
381
379
369
377
416
442
429
404
387
384
399
394
413
441
456
451
428
395
388
432
471
470
454
458
460
445
445
454
475
483
480
459
465
459
457
476
507
524
516
503
489
487
487
496
525
546
542
537
512
471
466
471
483
537
547
520
501
481
472
479
501
516
506
498
474
449
428
445
484
488
476
460
452
455
438
447
489
517
491
471
447
431
424
418
442
473
480
465
435
402
401
446
497
527
527
512
483
459
454
468
513
544
534
508
478
462
488
506
495
489
496
487
466
448
451
489
507
523
518
514
496
477
470
473
493
513
495
497
491
480
469
470
488
493
507
543
547
530
513
531
551
555
538
530
521
505
514
551
580
587
583
574
554
520
519
526
531
539
537
547
532
500
511
527
525
539
573
572
555
550
551
542
544
533
531
528
528
527
522
527
534
541
554
552
530
502
489
500
519
539
512
488
452
439
428
433
452
467
443
410
403
425
429
428
440
455
455
465
447
422
440
467
490
517
530
520
458
439
467
495
517
534
553
560
550
544
515
482
465
460
459
459
474
494
555
659
784
909
1023
1023
1023
1023
1023
1023
1023
1018
872
726
595
472
403
401
394
384
418
430
378
333
336
359
352
360
384
388
365
355
338
324
334
356
360
380
373
368
356
363
369
366
402
396
382
377
381
392
399
420
447
430
428
420
419
436
465
484
477
467
434
425
432
464
472
480
493
489
469
458
448
458
480
490
499
501
488
477
489
494
485
487
502
519
521
510
493
486
491
511
537
530
527
519
502
506
505
517
538
540
524
503
495
496
496
511
531
520
520
515
522
530
550
575
574
561
534
521
515
520
547
566
533
528
545
556
520
503
508
503
502
510
475
447
455
483
517
536
533
536
528
492
471
480
487
483
507
533
552
516
447
425
463
519
572
583
531
482
449
427
448
482
498
491
477
446
431
413
409
435
456
465
451
437
422
420
431
431
413
414
433
440
442
417
417
426
434
433
430
414
402
405
420
442
460
446
418
420
432
429
423
440
448
454
453
439
433
434
449
479
504
507
479
450
440
418
433
478
483
463
411
432
478
471
477
487
523
524
493
477
464
455
479
506
516
515
519
509
492
490
513
519
541
530
494
450
409
393
420
451
467
462
437
402
374
357
362
359
372
384
388
382
356
339
357
389
413
413
398
372
354
345
342
365
376
355
357
360
334
324
348
358
334
308
292
292
309
336
396
484
591
716
830
954
1023
1023
1023
1023
1023
1007
833
668
534
445
396
378
371
365
347
318
269
258
293
329
336
336
333
302
286
296
317
345
356
327
291
275
282
287
293
319
345
332
334
331
311
298
311
335
357
370
363
340
329
335
374
400
413
402
394
395
385
368
359
386
412
433
423
427
425
416
440
462
450
428
422
439
476
496
491
497
508
491
469
454
460
460
479
545
585
577
538
510
496
495
533
570
576
586
575
569
558
550
582
608
605
582
556
550
565
564
580
604
600
592
582
567
540
524
554
593
609
606
583
561
568
560
553
578
580
575
554
530
511
493
490
497
517
522
500
512
496
457
456
483
506
503
489
475
447
452
468
476
464
464
473
463
450
441
442
462
475
479
471
440
415
410
414
437
450
456
463
443
424
431
451
477
508
521
508
513
492
453
443
459
480
460
447
474
481
459
462
488
498
484
462
447
430
429
461
493
496
472
459
466
478
491
509
523
539
543
546
513
476
476
502
547
578
577
566
559
557
558
558
581
619
629
629
621
615
632
674
702
717
747
771
802
794
765
764
768
755
699
700
734
726
710
723
743
753
747
735
717
698
714
742
750
738
706
689
688
692
706
725
740
751
750
707
655
626
638
648
657
675
681
676
626
587
544
519
515
525
568
601
625
681
794
923
1023
1023
1023
1023
1023
1023
1023
1015
871
765
658
575
519
472
437
428
441
438
432
419
390
370
379
410
446
463
456
436
420
419
416
416
430
440
442
444
435
433
444
442
448
484
511
482
431
418
405
456
526
549
527
494
481
478
473
472
466
494
527
534
529
503
479
484
498
516
516
507
491
475
488
482
492
509
510
530
527
522
504
483
508
560
568
550
529
498
506
532
537
544
555
550
547
547
535
544
566
583
568
535
519
513
508
527
545
565
579
577
554
530
513
527
558
582
579
556
550
557
555
550
572
595
593
569
544
522
500
503
531
555
561
545
522
517
503
499
485
487
506
510
509
491
462
464
477
482
500
529
524
478
452
456
504
536
530
516
513
515
503
500
480
481
500
516
507
487
474
483
503
517
521
505
486
466
453
454
482
520
541
549
550
517
490
475
495
526
541
501
478
487
481
476
494
517
510
493
480
462
463
473
499
508
518
527
520
498
475
488
507
514
512
501
485
493
493
485
539
574
556
554
552
544
528
517
538
573
592
576
540
535
549
558
552
548
544
515
490
473
463
467
467
508
514
490
469
468
466
451
474
487
492
486
462
434
432
436
477
522
536
528
512
466
441
440
471
505
508
486
447
402
374
375
408
443
485
531
588
666
753
871
1019
1023
1023
1023
1023
1023
973
779
662
581
500
451
415
366
339
342
358
356
346
372
395
384
353
354
389
392
382
390
420
414
373
360
366
371
390
420
447
420
408
387
388
411
437
429
430
440
445
445
441
431
448
468
486
474
484
488
506
524
516
477
456
446
436
429
459
504
533
565
547
509
485
480
489
515
528
526
520
503
488
487
521
538
532
531
534
522
517
518
525
528
548
567
557
560
559
547
536
534
550
554
541
521
508
499
501
516
538
531
537
547
530
513
533
566
570
549
522
512
490
485
511
548
556
536
515
480
426
427
460
494
503
494
461
441
423
413
439
488
485
445
410
397
413
430
438
465
469
451
444
434
415
412
446
465
479
460
440
449
440
409
427
467
474
470
464
443
444
447
453
466
454
448
435
425
417
407
403
437
463
459
420
387
398
394
384
398
414
408
398
397
386
383
380
408
459
459
438
412
401
391
404
419
427
429
430
408
394
413
436
424
413
442
455
458
443
418
420
455
486
494
478
457
461
483
478
490
495
499
477
441
438
423
406
419
425
426
413
379
387
388
382
400
427
428
415
402
387
376
376
400
423
431
446
446
418
384
386
405
429
437
432
406
387
380
379
344
334
372
400
397
393
404
476
598
734
863
989
1023
1023
1023
1023
1023
924
780
636
522
445
392
352
338
344
352
327
300
288
286
286
320
364
373
347
306
278
288
312
353
386
396
404
407
368
358
355
372
387
377
380
381
373
339
333
384
431
446
446
431
397
382
381
425
461
455
438
419
399
402
421
442
452
461
463
439
419
427
448
431
440
443
458
475
464
437
425
437
458
473
482
479
458
444
444
459
458
467
493
479
445
432
442
466
494
509
506
494
474
476
472
464
471
487
485
478
471
476
480
487
485
471
468
484
470
469
456
439
428
425
416
407
392
358
356
376
402
384
357
343
323
311
275
271
298
326
352
352
322
300
303
322
357
383
374
340
317
307
301
328
374
405
424
424
399
391
393
391
399
412
397
382
386
394
416
456
473
460
447
454
456
470
486
481
490
496
494
488
477
466
460
474
505
524
523
491
478
485
499
514
543
555
530
515
496
488
483
503
526
528
523
528
495
485
493
519
529
530
534
522
485
471
484
527
553
542
535
543
557
571
577
563
562
570
560
534
515
490
479
494
498
490
490
477
465
466
463
476
472
462
486
507
473
428
424
459
485
494
505
503
486
463
444
437
450
447
435
442
453
429
393
391
413
428
412
414
402
430
496
592
722
875
1009
1023
1023
1023
1023
1023
952
774
621
501
397
350
342
354
364
387
368
331
330
334
347
371
379
391
395
375
358
359
376
398
432
440
465
494
476
439
432
421
416
452
498
502
482
481
488
527
555
541
510
490
499
505
512
544
586
587
589
592
581
604
646
615
612
625
610
588
595
598
607
614
628
635
643
617
590
560
542
560
599
622
614
585
571
571
568
573
575
588
591
586
585
582
580
568
578
591
590
574
558
562
548
543
567
582
567
575
580
580
580
555
571
587
593
614
596
565
556
557
574
592
583
569
578
577
571
579
583
582
567
575
584
566
529
504
511
535
522
512
520
538
549
545
550
558
567
572
552
539
528
513
558
629
620
586
567
552
567
555
552
582
605
605
586
553
542
533
540
572
598
591
570
541
511
520
544
558
574
579
558
521
496
495
516
550
556
510
485
490
495
501
526
555
558
539
512
511
508
511
547
552
520
497
485
473
470
495
541
547
541
535
526
518
483
508
545
555
563
554
517
501
483
475
487
500
512
496
444
412
409
423
444
453
432
431
440
432
421
426
428
448
463
466
456
460
441
430
442
475
504
502
465
435
434
446
443
433
409
393
388
380
395
431
496
583
686
799
905
1022
1023
1023
1023
1023
1001
820
650
545
480
431
413
397
377
371
355
337
344
356
359
378
377
349
331
340
343
341
363
363
359
365
370
374
369
378
412
446
451
439
423
400
380
388
405
429
439
442
439
422
407
400
422
454
454
446
450
450
441
436
466
504
508
489
466
448
475
500
493
477
466
480
474
474
477
482
495
506
498
495
482
459
472
517
547
539
510
517
506
486
498
519
515
518
541
546
537
522
529
552
561
565
574
573
553
533
544
556
560
573
593
585
562
559
563
563
591
620
614
589
572
540
525
524
532
546
552
549
519
489
480
487
509
521
505
487
468
442
436
443
438
459
477
486
473
457
452
458
482
494
504
498
484
464
462
476
496
512
494
483
460
420
403
422
443
461
474
464
447
445
455
465
451
451
461
462
457
429
433
450
488
483
456
453
436
410
394
408
452
486
477
446
434
446
440
462
502
519
502
467
459
445
452
476
495
500
512
518
500
506
516
514
529
546
570
582
557
520
471
456
459
479
499
480
442
442
462
473
474
480
459
416
408
411
409
414
441
468
483
492
471
450
439
455
467
487
502
497
482
464
452
452
452
457
424
372
360
366
383
420
485
589
733
837
950
1023
1023
1023
1023
1023
996
833
678
554
448
381
364
369
368
351
332
327
305
289
303
317
324
319
311
297
316
342
335
336
363
377
360
341
338
349
370
379
373
381
384
347
327
349
384
408
442
469
439
387
374
400
409
450
455
432
423
418
427
446
456
461
457
435
420
427
431
429
448
483
494
498
478
454
443
455
479
511
526
526
505
482
479
486
516
535
532
521
526
508
497
484
499
540
569
558
526
496
487
503
525
521
524
520
512
520
509
496
499
527
545
544
500
485
499
525
544
545
550
560
531
495
479
486
519
540
542
528
504
496
484
479
504
495
464
476
489
496
457
448
479
492
479
461
457
456
429
418
462
500
510
496
465
449
444
456
502
525
515
491
479
474
454
460
472
483
489
479
455
440
451
449
459
489
503
492
463
449
456
454
477
482
473
450
444
433
427
447
461
469
469
473
476
459
432
438
464
497
511
507
489
467
456
458
491
527
579
583
552
528
523
562
600
633
600
561
558
543
504
495
507
522
542
551
534
491
465
470
499
525
520
495
469
451
447
452
468
504
515
483
456
407
394
423
443
461
476
462
443
432
422
365
332
354
361
368
389
420
482
587
716
850
970
1023
1023
1023
1023
1023
965
825
680
569
475
416
360
315
309
334
353
359
344
336
361
370
360
354
396
435
426
405
402
409
428
438
468
464
453
445
432
414
439
486
493
491
495
475
450
436
456
491
509
513
493
490
510
495
490
502
519
522
524
517
477
462
498
553
562
540
500
467
481
488
506
514
521
535
548
533
512
509
520
552
574
591
589
566
545
541
575
601
586
550
524
534
555
568
574
571
578
573
567
550
531
533
544
563
582
605
596
566
541
539
566
612
622
609
587
568
558
551
561
565
582
585
558
526
502
499
515
524
507
501
508
497
491
476
489
516
508
495
498
519
489
458
458
488
514
523
525
509
479
457
479
523
541
509
475
452
460
480
489
494
492
507
506
490
469
454
451
462
495
516
499
484
472
462
470
499
527
528
494
467
491
499
483
476
498
513
501
479
473
484
511
524
518
510
498
484
478
488
497
492
494
514
521
531
512
500
506
523
556
584
575
533
509
499
486
500
501
499
497
483
467
463
465
485
497
510
511
478
419
403
430
478
502
498
476
450
418
411
420
456
495
492
468
443
428
427
441
453
433
403
388
377
363
363
379
412
469
551
646
751
853
963
1023
1023
1023
1023
982
835
673
540
467
429
389
372
357
340
338
327
322
328
344
348
329
328
334
320
334
369
408
427
408
371
348
342
366
397
440
473
462
436
408
388
399
427
426
408
414
434
454
459
434
442
467
468
467
467
444
442
432
418
423
419
422
427
421
406
395
414
426
422
425
416
410
405
417
438
426
450
485
480
448
428
435
453
478
473
482
474
461
449
389
360
406
463
491
493
471
448
446
457
464
500
529
514
461
419
408
423
438
450
459
456
445
439
435
428
430
437
453
461
420
376
376
399
414
402
399
385
353
331
335
378
401
386
363
353
352
359
351
351
400
402
372
376
365
347
367
406
442
453
444
443
437
426
443
458
487
482
460
442
436
437
454
475
481
488
498
500
485
480
497
509
518
520
524
510
502
525
550
557
559
559
544
529
507
503
532
570
579
614
629
604
562
533
535
565
596
604
568
551
573
596
599
598
589
579
579
578
561
562
567
582
607
633
626
622
634
637
635
644
650
667
685
651
595
553
577
646
665
628
616
609
604
606
616
626
637
651
645
619
620
630
642
640
629
632
638
609
592
624
631
624
657
666
636
608
583
560
569
576
575
563
535
518
523
548
585
631
708
801
897
967
1015
1023
1023
1023
1023
968
803
634
494
399
359
370
360
358
344
321
298
284
276
280
288
303
336
341
311
291
280
297
308
296
303
318
319
324
319
334
344
350
358
358
340
333
342
372
404
419
429
416
399
394
394
412
442
460
448
464
464
439
428
433
467
485
470
454
442
433
434
463
495
506
524
513
484
478
498
521
550
552
540
501
478
507
523
529
533
531
532
531
512
516
547
566
562
560
566
556
566
572
552
548
575
591
601
584
562
563
592
606
596
585
574
566
576
580
556
535
530
520
532
550
565
519
481
480
494
532
546
520
504
496
502
517
530
540
530
513
497
482
499
507
512
522
521
516
497
487
489
514
542
561
578
569
551
517
505
520
527
514
502
505
512
535
532
548
538
525
517
506
485
467
467
472
484
473
465
460
436
416
420
415
436
457
457
432
383
351
343
365
377
387
398
396
375
344
330
325
326
369
415
425
376
344
358
387
435
446
440
429
418
419
424
435
454
462
447
423
406
431
452
462
489
501
498
479
467
472
475
490
515
534
545
546
535
514
492
472
473
492
482
441
427
431
443
447
450
458
440
419
410
422
425
437
435
419
419
414
401
387
372
368
375
380
372
367
358
352
346
352
406
427
417
400
389
377
366
336
316
307
320
347
386
415
467
552
629
722
805
877
939
962
931
870
759
622
509
436
359
321
305
263
250
252
264
262
237
223
252
292
319
339
318
286
297
300
312
334
352
389
409
404
381
363
372
384
397
405
408
414
415
414
436
470
479
474
474
479
469
452
454
445
480
506
526
540
534
518
519
543
568
569
550
536
546
555
574
605
611
597
591
603
607
592
596
627
637
667
665
657
642
615
614
641
668
675
677
688
683
679
682
688
708
713
733
740
715
681
657
671
704
711
730
743
723
715
738
712
705
731
719
693
667
654
649
678
715
707
681
677
681
677
640
601
617
652
660
652
637
579
562
580
599
605
603
584
561
546
547
533
523
577
618
597
545
503
492
505
524
522
522
534
527
516
518
530
543
560
557
539
516
505
492
507
523
538
529
483
452
451
461
450
455
451
450
454
426
425
414
396
408
441
468
485
477
456
442
441
438
442
462
441
388
366
369
385
402
403
397
387
385
377
367
361
380
393
393
389
393
415
424
390
381
396
387
356
332
326
358
365
385
402
416
422
431
438
425
425
453
478
515
524
507
498
493
517
553
568
560
551
533
520
503
503
541
567
556
531
503
485
475
491
493
495
512
511
484
471
479
502
530
553
553
531
501
471
472
495
497
504
504
503
510
496
516
546
551
548
557
561
514
443
410
432
482
521
541
552
564
595
643
732
856
971
1023
1023
1023
989
881
777
676
576
508
460
426
387
359
348
359
369
363
360
369
359
353
362
388
416
415
393
379
373
375
387
438
483
492
479
476
479
487
507
526
530
529
536
548
554
540
524
521
539
563
555
527
503
497
504
516
545
570
581
575
557
545
578
607
584
551
546
551
566
571
578
581
579
558
549
578
579
555
551
573
598
591
587
575
558
550
557
603
606
592
614
629
607
585
584
583
564
564
586
600
591
591
585
602
611
618
614
593
570
559
553
530
535
566
568
545
517
521
520
519
527
538
525
502
510
509
490
484
480
473
474
480
489
481
461
474
506
505
499
485
454
444
449
463
463
460
482
478
456
433
419
422
462
495
513
490
438
417
428
444
480
469
463
472
465
456
455
465
477
481
483
485
506
512
482
467
466
473
476
480
481
483
492
528
532
515
516
512
508
517
523
550
564
563
573
582
568
570
555
561
576
580
577
568
557
571
586
599
604
578
576
568
546
543
577
597
588
563
553
554
548
550
555
558
578
584
585
575
563
557
547
558
595
594
574
559
559
566
559
567
606
610
581
590
601
596
587
607
630
632
620
602
575
564
571
572
572
578
566
551
550
571
549
516
524
542
527
507
494
474
488
517
529
532
515
489
503
518
506
502
496
501
506
488
462
460
470
492
508
523
513
475
434
445
425
395
389
413
444
479
525
587
666
745
853
960
1023
1023
1023
967
862
743
646
575
484
413
363
326
316
317
312
314
304
301
289
278
300
324
330
326
305
300
318
334
330
314
330
361
358
340
335
334
337
348
357
367
379
393
368
357
358
372
397
410
398
384
372
371
394
396
410
423
418
411
410
408
404
431
464
474
488
494
445
420
421
444
464
484
498
487
479
466
467
476
474
474
467
478
478
462
471
489
505
529
526
526
513
479
490
529
533
505
515
531
543
526
492
465
489
528
559
548
531
509
527
555
546
518
518
513
501
514
518
528
523
517
509
507
521
498
468
470
490
498
490
471
432
423
438
459
468
494
488
477
480
477
477
490
509
519
504
473
467
459
468
493
499
475
475
489
473
460
472
507
519
494
462
471
473
461
451
471
477
473
464
470
475
470
484
508
509
512
510
483
445
431
453
493
523
540
539
517
536
577
561
510
483
488
485
472
461
461
466
498
535
522
494
494
498
497
499
506
505
530
577
576
531
488
461
479
515
523
531
544
509
470
461
482
492
495
525
562
563
517
471
465
461
455
491
521
507
511
527
533
533
523
515
533
555
573
563
547
546
545
548
529
510
513
515
525
538
534
513
484
455
451
451
451
464
495
502
492
488
482
481
473
471
476
472
467
460
450
462
497
500
489
483
441
422
446
473
471
468
470
460
438
412
407
423
460
489
546
668
766
858
939
1012
1023
1023
1023
1023
912
759
644
546
481
443
436
441
434
399
369
368
350
332
330
337
376
381
356
344
375
417
439
433
413
412
408
399
397
384
383
396
422
415
382
387
410
442
464
477
472
455
444
436
415
423
420
414
429
422
400
392
404
455
474
472
469
423
380
393
431
445
451
476
494
466
430
416
422
451
473
483
489
482
463
450
450
453
468
472
484
484
459
450
484
516
526
542
522
488
486
475
489
505
510
511
524
527
507
502
531
546
555
567
558
558
545
521
519
542
576
576
555
536
504
501
508
512
518
512
496
489
495
528
535
528
535
558
571
563
534
530
532
546
570
588
595
584
566
563
561
552
548
545
570
582
540
485
475
510
570
596
592
604
594
549
526
535
555
561
548
538
516
502
496
502
536
559
553
541
506
482
467
453
468
471
466
480
497
477
485
484
453
461
466
474
487
480
464
483
494
488
481
448
428
459
497
526
537
521
491
460
448
444
446
471
487
466
437
431
449
448
427
435
444
458
456
446
438
439
461
479
495
484
473
457
425
418
425
434
472
500
482
428
422
432
431
437
469
480
479
453
452
447
448
462
497
519
524
498
445
430
445
458
461
473
471
450
426
413
427
453
439
453
470
436
421
455
466
454
440
433
434
413
407
412
427
458
473
492
482
452
445
435
423
441
475
477
475
472
441
407
397
413
429
435
450
495
522
593
731
850
949
1023
1023
1023
1023
1023
917
809
699
607
504
426
372
344
354
368
381
399
399
362
339
317
304
315
323
344
363
373
356
347
388
412
416
421
399
373
382
394
383
403
419
423
425
422
422
427
442
448
439
424
416
416
419
434
469
472
431
399
430
459
479
497
483
482
488
483
465
480
516
519
492
466
458
469
472
468
458
449
474
477
487
532
541
499
487
506
496
520
537
522
508
507
508
524
557
577
588
580
536
506
505
505
504
532
556
562
535
532
522
504
531
548
548
555
579
572
557
560
575
603
600
558
532
516
489
495
513
524
525
506
506
512
486
457
454
465
467
483
466
456
463
483
496
492
506
521
486
459
454
461
494
512
532
537
522
502
481
466
470
473
502
515
498
487
494
491
476
485
504
499
511
512
503
476
474
490
505
528
544
528
511
512
527
555
545
502
511
521
513
501
509
516
510
518
543
544
508
488
492
516
544
549
557
528
486
472
480
510
538
546
536
529
533
505
494
514
537
546
529
509
497
506
513
519
533
543
531
511
506
519
509
512
528
563
569
564
517
485
471
442
463
532
550
568
559
531
539
546
529
512
499
485
483
491
496
534
543
533
520
505
493
481
494
522
538
538
518
499
493
499
511
503
473
471
495
495
475
477
472
499
529
537
536
531
531
513
517
530
530
535
546
527
489
461
445
427
432
442
431
415
436
451
416
411
438
470
465
448
435
427
452
467
462
487
525
470
433
427
429
437
462
486
481
460
465
462
453
429
422
411
395
397
417
428
463
518
586
686
786
911
1005
1023
1023
1023
1023
1023
939
787
648
548
458
399
392
388
374
359
335
320
318
335
371
359
351
350
359
356
345
360
397
407
376
371
381
351
329
339
367
376
380
383
397
400
412
424
422
435
449
436
432
437
425
410
420
450
474
488
469
458
466
473
470
465
472
490
489
507
494
453
460
504
529
519
473
449
473
514
529
531
537
505
494
492
457
470
533
598
573
529
533
521
508
525
564
581
561
531
527
552
551
527
530
556
562
567
572
549
529
522
537
555
541
510
497
505
526
543
555
583
577
553
530
507
489
492
499
519
515
514
517
485
448
456
462
420
404
455
480
444
421
417
454
483
470
443
425
417
456
494
481
465
456
442
420
433
458
472
479
493
508
489
455
462
489
527
552
517
527
562
563
558
563
586
592
603
612
567
581
649
682
666
662
644
629
645
666
649
624
622
647
670
682
648
621
622
628
624
620
608
599
610
600
567
557
569
560
542
536
507
466
458
482
499
478
481
477
497
487
478
477
477
478
461
458
461
431
395
406
415
416
439
445
436
411
413
419
424
423
420
437
458
405
387
375
391
401
420
436
450
444
433
448
452
467
482
460
421
398
406
443
480
519
492
443
433
447
463
467
467
484
500
520
499
480
487
491
504
551
587
572
541
534
518
532
560
597
621
613
594
577
586
578
558
536
536
544
565
557
520
508
512
512
524
543
550
530
557
548
520
518
515
512
494
491
512
523
542
560
566
555
549
538
518
528
545
544
553
549
554
542
506
493
490
483
458
462
469
516
564
627
727
834
945
1023
1023
1023
1023
1023
1023
948
810
675
554
455
412
402
379
356
343
332
305
265
225
203
208
224
241
215
188
185
187
193
211
230
245
270
283
277
250
236
233
247
283
331
335
310
302
315
343
350
354
381
393
398
391
381
380
390
388
376
382
398
408
415
400
386
397
421
443
462
399
365
381
422
445
467
498
472
442
435
435
466
483
474
454
454
465
467
472
473
500
509
504
491
500
498
480
493
508
524
538
532
528
516
505
535
542
537
538
532
504
495
503
535
554
559
560
553
536
530
533
554
572
562
528
505
487
486
501
522
537
537
506
470
464
452
445
472
534
547
535
514
459
452
468
467
479
480
478
473
462
476
495
488
491
503
492
476
477
492
497
476
450
459
470
479
493
503
495
504
534
544
539
521
500
488
462
461
521
544
517
513
506
498
509
516
521
515
518
521
520
515
502
508
524
523
501
491
507
520
507
516
519
540
553
524
513
512
524
547
543
515
505
521
515
490
468
467
489
519
566
556
516
516
506
498
534
551
538
517
499
496
508
540
559
567
564
532
505
496
488
485
492
489
480
476
478
479
492
487
516
548
550
534
523
521
519
524
536
529
526
526
522
495
495
522
558
549
500
486
498
488
472
505
539
532
514
533
548
525
508
524
564
593
588
567
553
540
544
568
560
563
575
552
508
486
489
473
462
458
465
465
460
488
488
477
478
488
470
486
508
504
491
487
500
503
490
493
468
452
469
484
487
499
534
527
497
461
439
431
400
396
420
423
436
479
556
655
764
885
998
1023
1023
1023
1023
1023
1021
882
758
654
548
462
411
377
360
341
340
367
385
396
371
351
365
396
393
364
342
345
360
396
399
384
383
370
353
344
374
412
428
417
400
386
389
422
458
459
460
451
450
448
445
467
450
425
452
469
463
426
413
432
468
484
504
512
476
457
455
461
452
464
453
450
477
526
525
499
481
489
497
507
502
501
490
489
507
506
509
523
535
531
504
480
486
533
561
588
576
548
522
507
493
515
545
537
550
569
586
581
542
525
547
565
577
561
544
547
547
567
582
566
539
518
516
519
520
525
545
557
559
543
536
504
470
475
488
490
485
485
493
479
454
441
463
478
470
451
470
470
476
498
507
494
495
513
537
536
503
472
488
498
487
454
451
465
476
462
481
492
469
453
493
488
462
482
494
507
520
512
499
486
471
494
537
554
543
516
512
500
484
480
477
494
510
513
500
489
479
489
509
509
505
521
535
526
543
555
524
502
483
475
467
487
506
522
518
520
515
504
487
472
483
518
541
525
500
495
488
487
508
518
502
511
550
582
553
493
481
504
529
550
546
525
487
468
482
508
530
529
515
484
475
488
502
521
553
556
523
526
538
509
494
506
551
601
581
559
530
480
471
493
506
516
516
517
521
535
542
541
559
590
591
569
558
549
539
545
555
551
549
538
521
535
545
552
517
456
441
437
422
427
436
449
478
494
499
496
468
472
482
478
477
486
525
537
521
484
470
475
484
499
528
504
483
484
465
437
400
369
368
381
388
415
479
585
706
820
952
1023
1023
1023
1023
1023
1023
988
841
719
622
528
458
420
399
372
372
338
307
298
314
333
353
371
370
332
326
350
367
368
382
401
410
402
410
414
409
413
427
430
413
409
396
386
390
404
423
431
427
418
420
420
426
448
474
494
486
464
487
504
473
438
458
510
492
447
442
418
412
412
439
477
513
509
482
473
479
479
485
504
508
508
504
487
462
490
544
524
540
545
511
494
488
486
507
540
552
528
517
520
522
533
554
541
529
535
537
525
509
512
532
538
528
517
515
511
528
523
512
535
555
550
546
539
509
498
509
536
547
526
517
480
443
446
464
475
489
489
490
476
421
409
439
476
481
458
455
460
449
482
497
485
474
467
463
460
451
451
477
485
485
478
472
460
442
440
458
479
507
506
473
493
518
481
460
484
488
470
479
489
469
454
470
505
515
508
502
492
475
487
509
502
507
509
496
475
446
441
459
486
493
504
496
479
498
534
524
510
501
482
485
500
493
479
492
503
493
486
518
539
559
582
564
479
442
459
462
452
444
452
479
505
521
521
518
514
498
501
506
510
513
508
488
471
476
487
516
546
560
556
506
472
479
462
448
463
496
532
517
497
488
497
523
528
511
485
495
521
528
547
564
580
548
522
507
503
519
547
574
573
579
592
577
567
575
542
506
487
476
473
481
472
459
461
494
513
510
512
508
482
453
470
492
487
486
485
482
473
456
446
463
465
455
479
487
480
481
490
490
506
513
486
425
377
356
353
373
433
505
542
593
683
790
893
1015
1023
1023
1023
1023
1023
911
764
641
553
491
441
393
358
332
315
352
380
379
363
344
338
348
333
332
356
372
361
354
344
333
344
366
377
397
429
445
438
427
429
463
501
471
412
399
416
415
415
444
462
463
448
424
420
422
425
437
438
431
435
453
472
480
469
469
482
493
484
470
473
468
496
529
521
519
503
484
466
463
472
491
506
514
508
514
499
481
481
502
508
527
527
524
532
527
543
540
538
533
542
533
525
533
521
509
530
555
568
561
556
534
522
522
525
527
527
524
510
507
527
548
540
519
518
533
513
498
509
534
532
522
504
474
443
432
450
492
508
498
476
454
434
414
400
418
451
475
500
498
463
443
444
448
463
468
468
482
499
479
464
478
496
510
488
465
450
446
453
477
489
493
473
461
446
437
449
474
496
500
498
495
472
452
447
454
492
529
536
524
499
477
484
506
538
535
527
527
517
516
486
470
510
537
523
472
440
445
456
472
499
535
552
557
534
510
510
506
512
536
533
515
497
484
481
501
558
579
562
536
532
511
493
488
515
525
503
496
489
485
508
536
539
534
541
534
518
521
550
552
524
503
509
507
493
515
550
563
554
555
544
521
517
515
507
506
535
542
519
497
531
568
576
583
605
628
630
618
594
575
563
567
580
572
570
545
527
531
541
542
539
563
596
594
573
552
549
552
545
543
558
585
587
557
552
562
578
563
559
564
569
558
569
572
570
550
530
539
542
525
510
493
483
494
509
511
543
609
703
803
897
1015
1023
1023
1023
1023
1023
1023
907
779
662
573
500
447
423
422
423
421
420
415
403
401
406
409
406
420
424
434
454
444
416
406
415
446
464
460
445
437
436
454
488
489
472
467
465
451
459
469
466
473
464
456
471
456
455
475
483
508
522
509
479
465
482
496
514
518
500
500
491
480
484
509
526
528
512
500
473
459
465
507
555
564
547
530
522
510
497
491
516
533
544
569
559
516
527
548
548
540
537
534
528
515
515
526
528
527
551
553
531
524
510
521
565
578
547
531
543
521
508
522
519
527
553
554
524
486
454
455
466
468
489
510
488
467
440
444
454
450
463
471
459
423
406
423
446
448
439
445
441
424
408
426
463
467
466
447
413
400
415
451
486
494
478
448
419
399
410
430
439
444
477
483
459
448
448
444
462
485
480
506
488
454
422
414
445
494
488
467
449
433
438
453
477
499
503
480
455
454
453
461
497
506
486
478
476
466
462
474
486
491
473
475
446
432
448
481
492
493
499
477
447
430
436
430
448
483
497
487
490
484
469
477
496
491
501
498
461
438
446
459
475
476
471
490
488
471
474
478
474
475
471
482
474
441
442
422
420
447
483
506
496
456
429
437
467
491
487
485
490
494
482
487
508
537
556
546
539
515
494
520
548
547
541
525
498
474
467
470
484
482
479
456
418
401
407
429
465
487
479
475
463
451
444
449
477
491
481
461
458
463
448
462
488
477
464
476
464
435
437
458
483
475
444
428
410
393
398
438
511
593
686
782
871
967
1023
1023
1023
1023
1023
932
794
645
523
459
425
406
389
350
334
355
362
351
349
345
345
358
355
336
333
353
368
390
382
348
336
336
345
362
387
402
404
397
377
369
379
391
417
437
447
427
415
425
444
437
433
422
429
452
448
433
441
444
432
441
454
451
447
432
448
472
475
476
469
477
461
438
438
447
467
483
506
512
486
470
465
476
509
529
540
524
485
482
488
481
486
499
503
524
527
526
519
521
537
532
520
511
510
523
519
514
527
535
519
496
485
500
513
515
532
546
543
534
525
518
515
513
517
515
506
506
501
488
478
456
441
434
438
446
437
426
437
474
477
448
448
462
464
455
454
479
482
504
511
497
483
458
426
416
438
468
491
492
490
497
477
442
434
446
458
461
460
463
475
484
485
494
505
501
476
473
481
470
471
489
521
524
496
486
497
514
519
500
497
497
502
501
477
466
472
483
501
495
500
501
491
494
510
516
520
512
502
470
471
499
516
530
516
485
463
479
488
503
511
517
516
515
506
491
489
485
473
490
529
528
514
499
488
508
513
505
501
515
519
491
498
510
509
508
501
516
541
512
483
470
455
482
500
501
490
491
495
520
532
531
520
521
521
507
502
498
490
496
538
564
542
519
540
575
595
567
564
583
563
528
509
506
510
506
512
504
499
494
462
472
530
543
507
491
481
469
472
515
528
506
487
465
482
499
494
473
496
508
501
482
462
445
434
461
488
489
489
487
466
448
442
442
437
450
455
467
492
528
565
623
721
820
915
1021
1023
1023
1023
1023
1023
930
799
657
564
471
389
359
357
377
380
370
352
356
353
333
330
373
406
406
397
383
360
352
362
382
383
410
420
385
365
379
413
429
422
406
404
407
417
417
412
408
409
427
436
430
428
432
449
467
471
446
441
451
445
452
476
517
535
511
478
454
448
461
458
472
481
484
476
455
443
449
472
514
536
528
496
478
478
477
501
507
504
499
504
505
505
531
534
542
544
531
502
497
495
501
520
545
549
534
520
513
517
519
521
529
554
558
537
518
513
521
517
509
510
539
552
535
504
495
484
488
510
533
527
470
438
431
455
476
490
487
472
466
474
481
477
474
466
472
481
477
447
439
449
479
478
472
473
488
480
476
482
466
452
464
465
454
450
465
483
484
476
474
477
483
471
482
492
510
524
527
498
466
460
474
508
522
496
473
478
478
460
495
533
526
512
490
466
459
459
466
491
532
530
522
493
471
444
445
486
508
508
512
499
486
466
455
480
492
497
546
563
513
454
452
506
534
517
487
472
477
479
488
497
526
544
539
492
480
479
485
490
474
480
507
535
520
493
501
525
547
527
502
499
496
481
466
469
477
489
506
503
491
479
492
526
553
565
560
548
521
480
467
498
527
526
506
489
501
528
568
560
553
551
533
535
541
538
517
522
545
552
536
505
479
467
466
471
493
512
512
494
516
518
492
481
487
507
495
482
478
466
465
480
519
530
500
476
473
488
478
458
452
472
496
501
484
471
463
478
482
453
430
439
448
444
446
481
527
590
675
772
868
956
1023
1023
1023
1023
1023
946
764
604
513
459
424
373
358
366
362
358
356
351
359
356
354
358
364
373
378
372
380
392
383
389
397
416
439
416
363
341
339
355
385
411
408
395
417
451
460
428
386
404
431
453
443
435
438
457
453
443
447
451
471
498
523
485
429
403
415
432
453
467
480
478
470
468
460
460
489
506
509
510
510
492
484
508
531
537
520
508
501
488
490
495
484
469
475
490
510
512
480
482
513
546
534
516
517
516
525
542
543
519
508
526
536
538
524
521
527
531
533
525
501
487
494
497
481
458
480
484
459
453
459
470
478
487
479
461
443
431
434
445
466
480
494
497
467
461
457
467
462
448
452
456
454
458
446
463
487
484
477
488
476
454
451
480
500
498
490
480
450
445
454
480
500
500
480
481
472
459
448
455
491
506
510
502
486
485
488
478
500
529
546
518
488
489
477
470
480
495
523
504
469
478
506
517
524
497
496
499
486
469
478
493
493
486
479
473
444
451
473
502
532
560
541
510
507
494
480
490
497
488
484
480
478
479
493
503
517
515
518
508
491
487
482
473
476
478
479
487
514
507
504
498
476
476
492
511
505
462
455
487
512
526
533
531
519
512
498
499
500
506
523
504
463
444
451
449
470
496
505
511
505
490
513
541
522
529
530
497
481
481
493
503
526
545
547
549
569
567
543
526
527
533
521
497
492
516
523
519
508
505
501
487
490
490
468
490
533
527
485
455
450
454
458
456
461
471
468
476
474
455
447
466
494
524
519
488
483
473
477
501
506
487
462
441
409
389
407
449
483
498
540
614
714
830
947
1023
1023
1023
1023
1023
963
809
683
577
501
451
410
376
369
377
373
361
363
348
363
382
369
362
348
371
393
373
367
376
393
403
403
396
413
428
428
416
397
391
392
399
431
463
467
448
422
419
426
424
423
435
460
477
485
449
432
452
460
449
463
476
452
450
441
429
455
507
543
547
517
477
491
498
486
484
485
483
482
481
497
528
547
524
506
483
465
480
491
495
507
514
509
520
534
534
524
521
516
529
534
541
544
531
507
513
533
534
547
537
511
499
502
502
509
518
540
547
538
526
511
487
471
489
498
480
461
472
488
471
450
469
498
492
469
467
478
480
457
453
462
473
454
423
414
415
453
480
463
436
462
484
457
446
475
489
477
474
472
463
457
446
463
483
495
497
492
482
468
453
451
464
475
480
502
514
510
526
548
523
482
454
469
484
467
464
485
513
503
493
504
512
501
496
510
512
501
488
502
493
481
496
529
538
539
525
504
494
482
479
491
527
538
529
515
491
484
490
506
526
540
519
488
461
458
481
518
524
512
501
491
479
484
524
544
553
530
494
500
501
493
487
494
510
498
484
477
483
488
495
498
520
535
554
535
521
508
504
491
497
511
525
514
512
499
477
493
510
541
538
516
512
507
485
488
505
509
520
515
510
504
500
510
518
540
543
522
519
552
545
540
555
558
554
548
522
487
480
501
521
529
531
536
536
540
560
582
591
579
552
534
518
506
501
528
551
528
505
487
474
488
496
495
500
492
485
475
457
456
481
490
513
514
510
499
480
484
497
497
494
490
497
502
497
489
482
473
485
511
490
447
441
437
434
444
451
446
474
523
601
710
825
937
1023
1023
1023
1023
1023
1023
917
777
667
588
509
438
401
368
357
370
378
379
380
373
358
368
386
410
427
444
424
406
410
412
402
404
424
403
410
429
434
411
397
412
437
451
464
470
449
429
432
461
476
465
439
419
429
464
493
498
500
477
458
456
455
451
465
498
509
505
506
512
518
508
493
493
495
504
506
507
498
479
452
465
504
523
537
510
479
480
498
515
526
522
529
527
528
541
550
560
550
539
526
526
542
557
550
556
559
571
565
552
552
542
510
497
501
507
503
521
539
527
517
526
539
564
557
533
511
515
509
498
516
536
516
486
452
462
480
508
537
541
521
478
450
456
446
457
487
488
473
457
453
448
462
484
510
509
491
461
446
442
456
503
521
513
515
533
535
495
458
473
509
520
500
487
484
506
508
505
513
501
497
496
488
510
515
504
515
517
507
503
483
474
509
517
509
534
539
517
516
508
516
520
514
512
533
528
511
511
488
488
494
505
520
517
491
461
443
454
484
519
524
497
497
490
483
493
500
502
531
529
509
493
495
514
532
524
513
502
496
473
458
475
513
532
514
491
495
512
503
486
490
491
491
499
507
483
453
463
471
498
533
534
530
519
507
515
535
525
511
500
480
451
451
490
536
528
496
489
488
471
468
484
504
504
499
507
504
503
494
497
502
505
524
517
491
487
509
532
580
609
609
597
566
535
538
549
552
562
566
539
517
517
528
522
484
487
487
478
478
474
457
483
519
528
515
473
459
471
509
527
520
508
515
532
524
487
455
473
532
563
509
475
474
477
478
480
487
505
503
467
441
410
395
429
460
484
543
634
738
851
943
1023
1023
1023
1023
1023
1016
865
742
622
528
492
480
461
420
379
352
341
340
358
370
349
360
356
344
363
399
410
403
382
395
431
443
412
394
384
396
396
395
382
413
431
438
439
458
500
487
452
443
446
454
442
442
446
449
475
493
504
501
475
456
468
482
463
452
466
492
516
516
501
483
482
480
481
498
516
526
516
478
458
468
495
514
520
532
540
533
522
511
525
543
565
549
538
530
508
526
521
527
534
547
547
532
520
544
555
559
570
567
553
523
506
505
519
530
532
547
552
538
522
513
514
539
572
577
562
527
480
453
462
483
503
503
472
454
466
479
487
493
498
501
499
475
457
441
440
480
490
505
515
501
465
440
458
499
513
503
484
469
447
450
468
477
499
517
517
505
484
487
497
502
497
487
489
488
476
466
482
520
540
503
505
533
545
534
518
484
487
495
494
511
522
512
510
512
520
542
519
495
491
479
495
515
519
523
525
501
466
472
537
592
545
493
474
476
455
444
459
465
463
510
523
525
537
532
516
498
503
493
519
533
514
506
496
494
489
486
512
531
516
496
498
505
517
493
467
499
507
494
483
498
519
520
525
503
481
488
510
519
545
553
525
504
492
485
482
504
520
513
517
500
488
493
501
518
546
554
539
520
509
486
481
501
523
526
534
537
537
509
496
503
530
555
598
586
552
548
561
563
574
580
567
556
544
560
584
570
545
543
542
512
504
511
507
499
485
496
498
494
509
506
501
510
511
523
527
507
476
466
468
490
522
528
515
484
472
490
488
502
505
484
486
506
487
480
470
443
424
420
399
410
450
482
555
657
786
917
1023
1023
1023
1023
1023
1023
1003
863
720
598
481
418
396
388
385
388
398
369
333
329
353
358
354
332
349
373
347
350
355
371
408
427
408
384
393
417
428
437
425
424
420
396
364
381
425
456
474
460
433
437
447
428
429
454
459
457
445
424
414
437
472
480
473
466
460
469
481
491
479
471
481
474
453
446
455
487
513
516
509
493
501
514
491
477
489
513
518
496
501
487
495
517
540
526
526
538
545
543
537
527
514
529
552
537
520
529
548
545
544
550
539
519
534
524
537
544
542
550
551
553
519
495
485
483
475
492
503
512
524
503
451
438
464
491
497
493
501
500
448
426
438
448
465
476
483
473
461
448
461
467
467
487
491
468
437
405
418
469
476
457
450
450
453
460
473
475
471
485
484
466
470
456
465
510
507
498
499
488
480
478
474
473
494
510
517
494
467
467
478
494
503
514
511
470
471
500
508
483
473
481
478
476
475
483
497
511
518
527
511
479
443
440
457
469
491
529
550
532
501
468
465
481
490
494
490
490
486
477
476
499
516
520
505
481
462
443
465
508
544
545
530
511
483
474
470
497
493
486
486
487
480
473
490
512
516
494
497
488
504
513
511
515
511
480
468
485
506
509
531
547
547
532
520
527
482
472
490
515
528
504
507
510
493
485
488
527
561
571
557
531
535
552
543
533
558
579
581
573
565
526
508
538
541
542
529
506
487
479
490
513
503
483
482
490
482
466
463
470
485
499
525
499
450
444
474
531
554
541
512
497
481
472
466
450
460
492
488
483
467
451
442
415
414
414
422
451
472
510
577
698
828
969
1023
1023
1023
1023
1023
1023
957
796
672
563
475
421
382
370
377
363
351
343
338
321
317
324
338
346
355
347
327
342
383
398
414
421
412
416
389
373
380
404
419
416
421
401
397
416
420
419
433
434
438
448
439
433
434
446
468
459
447
441
420
435
479
499
516
485
451
429
403
416
451
469
486
486
483
505
507
485
483
504
527
538
540
515
485
469
469
485
504
519
520
532
534
518
518
502
500
515
516
519
520
512
510
528
549
561
556
548
544
547
539
541
559
564
585
584
536
487
483
515
540
540
522
527
501
475
491
501
510
504
488
477
465
446
456
485
515
502
495
472
461
449
435
440
481
511
505
477
456
435
436
473
500
500
499
479
461
454
430
436
461
488
489
489
489
499
485
462
488
507
502
511
508
486
456
473
496
495
492
492
490
471
467
470
484
500
502
484
466
479
501
507
514
518
524
522
495
474
501
536
549
533
507
514
507
491
497
510
497
489
505
517
527
526
512
477
462
486
494
486
466
480
510
536
521
509
513
516
491
465
463
500
518
503
513
536
524
505
500
521
553
552
520
499
493
489
510
535
545
536
510
504
495
493
494
510
516
525
522
489
473
482
498
500
505
506
526
529
504
505
498
509
539
559
550
531
505
488
492
526
548
552
541
506
515
535
544
570
574
561
537
536
550
584
599
569
540
538
532
543
552
553
544
522
496
494
506
496
470
453
477
507
500
485
492
494
512
510
486
481
480
467
469
450
441
470
494
509
507
501
513
505
494
482
476
507
519
489
453
430
404
384
400
432
466
527
592
649
740
850
965
1023
1023
1023
1023
1023
1023
906
751
631
554
474
441
412
366
330
313
323
335
366
374
361
348
360
355
362
407
427
379
330
331
361
400
418
419
424
429
419
403
425
448
460
437
408
393
391
381
380
401
430
452
457
464
459
441
444
444
452
466
467
442
428
463
462
480
514
517
509
499
501
513
491
447
456
480
517
518
515
516
484
448
455
482
513
521
512
504
487
483
505
533
547
559
557
533
519
523
539
569
607
597
569
513
495
512
520
531
552
574
560
529
513
528
540
524
534
557
547
547
534
516
537
532
517
522
511
539
551
515
494
515
513
500
476
442
434
440
465
481
503
501
479
464
456
469
483
489
489
487
483
494
482
457
461
494
500
502
474
451
446
457
475
475
489
509
494
501
509
492
487
484
500
511
506
492
494
495
494
507
513
512
509
496
488
516
545
518
503
491
474
467
469
453
446
459
492
510
519
494
477
505
506
509
514
517
510
501
507
499
486
507
513
535
540
502
479
481
475
487
502
507
495
480
488
478
488
502
508
504
499
489
487
496
509
525
521
491
495
485
471
481
480
499
514
517
490
458
467
482
491
489
491
493
477
459
479
504
522
518
523
522
507
497
487
468
489
508
522
535
539
490
442
436
436
455
491
518
532
543
532
519
536
542
540
537
545
533
537
559
562
582
593
570
549
545
539
541
514
519
538
511
461
432
448
449
461
480
485
480
480
473
466
456
474
491
496
492
487
492
498
497
498
495
475
469
467
462
459
448
453
480
487
491
501
496
485
455
425
408
399
397
427
476
540
626
725
842
970
1023
1023
1023
1023
1023
1023
904
777
676
585
497
444
398
367
369
347
354
374
355
354
378
379
354
353
347
336
346
351
360
368
374
391
396
394
404
408
422
446
448
433
427
432
442
432
412
409
423
452
475
482
485
480
453
447
452
461
465
449
445
445
452
461
471
475
484
482
488
491
496
506
527
506
500
506
508
487
455
471
499
509
521
517
496
475
471
486
512
532
529
516
507
517
520
518
523
528
534
543
538
534
543
543
541
543
545
568
577
552
549
550
547
561
573
571
549
537
538
546
562
541
501
491
501
485
469
462
456
462
472
475
467
481
500
506
481
475
480
452
433
441
485
502
489
481
480
439
412
420
428
453
464
478
488
452
425
435
452
465
463
467
479
478
462
440
439
454
475
483
490
469
452
450
450
449
457
469
482
483
482
486
487
478
475
476
494
500
499
515
499
488
490
516
521
501
497
498
491
489
489
492
491
481
480
485
471
462
462
474
479
490
490
485
491
497
493
509
516
516
499
491
500
506
523
517
503
501
488
480
475
469
475
478
511
541
522
484
453
462
485
491
486
484
498
514
497
482
491
496
496
489
481
478
495
530
535
520
508
486
480
470
471
499
535
552
531
519
500
492
478
489
514
523
515
491
480
485
485
491
516
536
563
546
538
564
564
552
555
551
546
527
507
500
500
508
527
533
505
489
494
483
446
445
467
488
488
485
471
449
436
462
475
479
500
507
499
490
483
475
497
490
472
480
473
462
475
484
488
505
488
460
436
403
377
394
431
468
503
540
589
661
754
864
1002
1023
1023
1023
1023
1023
886
744
641
566
500
450
411
370
347
322
320
336
335
326
340
338
350
360
386
406
427
436
418
401
391
393
406
419
433
400
382
376
406
415
432
442
437
432
431
420
407
411
443
467
490
503
477
445
443
441
461
475
482
490
476
468
467
450
472
496
497
496
495
482
459
466
499
511
504
496
497
470
463
501
527
536
513
498
497
509
520
514
523
539
546
531
527
544
564
553
541
548
547
544
534
533
533
544
545
543
559
584
575
546
519
527
538
546
560
571
563
554
542
528
525
524
547
547
545
530
485
471
486
487
473
481
489
494
491
493
488
490
481
483
470
446
452
459
482
503
490
466
459
460
471
475
480
504
518
507
493
477
473
480
512
530
488
450
458
474
498
505
508
531
519
487
491
482
454
441
460
500
528
525
521
511
496
497
508
505
497
529
555
538
506
519
526
541
538
531
530
518
506
514
540
538
516
524
533
517
514
507
500
504
502
522
529
514
514
502
489
478
493
522
517
501
508
508
525
543
535
522
511
485
482
489
475
498
511
512
505
480
464
487
523
543
553
547
522
512
522
517
521
517
495
495
496
484
485
517
538
528
505
482
494
518
539
541
557
552
509
487
464
467
499
505
523
538
531
529
547
550
539
528
549
567
550
548
547
544
558
572
568
559
538
541
533
518
514
521
520
525
542
555
512
496
479
473
469
469
489
495
471
480
506
486
477
479
488
500
515
514
489
454
472
516
509
494
488
485
493
520
534
516
480
448
433
414
417
468
528
584
657
748
849
939
1023
1023
1023
1023
1023
1023
874
712
585
516
476
450
420
396
396
396
395
386
374
372
389
393
376
367
366
381
407
417
435
430
401
399
398
412
428
439
441
431
412
391
403
422
437
455
473
467
434
410
416
456
488
490
463
453
465
461
463
467
462
454
460
475
480
479
490
494
511
526
510
470
457
467
485
492
509
526
529
517
480
459
466
481
486
505
507
525
523
508
504
519
516
518
536
551
543
547
533
523
542
552
571
573
548
535
537
535
537
550
564
552
547
549
556
545
547
542
525
515
513
501
499
492
495
512
523
524
497
469
467
478
474
466
480
470
460
484
478
448
445
459
460
468
465
453
450
448
460
488
506
490
473
459
462
463
479
493
482
461
453
458
450
457
493
506
476
474
464
467
481
512
487
453
465
468
474
461
454
460
481
497
497
485
504
505
460
450
485
492
509
512
481
463
476
500
505
490
494
499
477
477
486
499
520
495
484
521
520
495
482
472
490
496
497
478
478
487
494
524
541
517
486
476
476
485
470
471
493
520
522
509
489
483
480
491
534
548
526
498
487
471
434
426
457
491
505
501
497
495
487
468
490
506
518
518
487
471
465
481
504
524
536
502
475
455
455
463
485
485
479
500
528
512
488
492
498
506
521
515
508
508
515
518
541
556
543
525
524
526
521
522
528
528
514
503
471
446
460
498
487
456
456
459
457
469
458
462
485
492
487
489
485
481
470
445
463
479
472
476
472
476
465
478
489
476
469
485
502
505
489
474
460
443
424
415
424
437
467
513
600
714
793
861
950
1023
1023
1023
1023
1023
963
818
675
554
480
418
381
387
399
394
373
351
342
363
393
410
416
396
369
352
357
371
383
373
382
403
419
406
371
375
393
422
421
402
405
424
428
425
438
447
465
473
456
432
407
412
432
451
487
510
468
414
413
436
441
460
463
473
480
475
474
487
491
473
486
496
485
461
455
472
493
508
513
496
483
483
486
502
508
540
538
516
519
523
506
505
500
511
545
559
552
542
527
520
525
536
552
559
560
539
522
512
511
538
555
559
554
533
492
516
548
535
520
536
526
491
496
512
505
527
521
494
491
474
445
445
452
478
490
486
484
471
478
466
448
458
472
479
481
462
454
451
460
479
493
495
479
470
471
465
466
467
470
481
469
445
452
470
457
453
462
482
505
496
465
461
466
477
503
516
513
492
458
436
444
480
503
499
495
478
470
466
489
513
530
531
505
485
475
466
480
490
505
510
502
482
474
479
487
499
516
507
510
520
519
493
487
492
486
489
507
508
498
491
491
484
490
504
524
511
491
499
485
466
482
503
505
505
494
491
483
485
494
499
517
515
494
478
507
528
515
495
490
495
489
477
480
492
503
518
511
480
449
447
491
509
507
493
498
487
492
497
484
503
517
517
527
522
503
480
491
498
523
549
558
525
495
492
505
514
524
546
579
585
559
537
522
551
552
532
518
492
482
465
473
497
512
528
519
482
469
464
476
500
518
505
486
471
461
473
487
508
522
500
467
451
467
481
504
514
487
446
450
467
469
476
491
503
513
511
492
469
455
429
426
449
477
491
507
531
567
643
752
885
1006
1023
1023
1023
1023
1023
914
779
651
564
504
456
424
378
355
361
368
357
347
356
354
373
375
384
387
379
380
356
354
386
408
428
427
413
399
387
386
382
396
428
440
450
438
431
419
400
378
393
423
448
444
424
409
436
464
489
492
475
468
480
498
501
496
481
477
466
454
437
432
447
475
507
522
521
500
475
449
454
463
472
501
537
541
544
529
490
488
513
534
530
515
507
530
539
561
565
549
541
523
512
521
540
536
545
563
576
574
548
518
494
479
491
519
545
554
536
532
543
551
552
544
525
507
481
477
490
502
505
517
501
484
463
457
468
472
493
481
451
461
475
484
479
474
487
489
486
513
482
445
448
454
454
467
459
427
430
465
489
517
515
488
473
486
503
489
478
472
464
467
474
482
503
500
478
481
490
500
498
498
498
493
492
484
479
481
492
502
509
492
484
484
495
530
539
535
515
499
499
497
496
507
518
512
501
502
508
502
490
491
507
507
501
495
499
504
532
540
507
493
477
485
506
496
510
536
514
485
478
477
491
501
522
513
496
500
500
487
481
490
502
509
505
497
493
510
520
539
548
541
533
508
484
486
511
548
556
515
492
486
475
462
475
490
498
512
514
507
511
505
476
459
483
538
553
542
537
505
466
475
517
547
556
560
546
536
543
542
517
508
488
466
468
466
475
497
513
534
540
547
517
505
531
548
558
572
580
603
602
556
520
512
532
547
536
505
495
515
501
475
487
512
501
466
450
448
456
459
461
457
462
463
471
480
472
460
471
497
508
490
449
439
444
455
460
469
483
483
459
456
480
476
463
473
483
475
454
423
394
390
408
426
463
498
553
644
742
836
937
1023
1023
1023
1023
1023
952
820
705
620
533
456
396
355
337
346
353
363
368
362
352
368
367
348
352
389
413
400
380
361
342
350
370
391
418
466
510
483
398
388
390
374
362
370
410
417
413
420
443
460
469
463
450
449
460
455
466
468
455
467
465
452
448
450
485
491
491
477
456
468
469
461
468
477
494
501
506
498
499
485
497
536
547
543
525
506
486
498
529
530
535
541
536
516
501
494
518
545
541
543
547
545
530
529
520
535
555
558
558
551
545
560
570
562
563
547
547
542
537
498
484
501
515
511
490
482
485
492
474
471
481
490
483
466
455
479
496
497
499
490
475
475
469
469
464
462
460
454
446
448
465
457
462
479
500
505
495
464
453
450
448
468
491
506
486
490
502
510
502
509
475
452
476
486
482
483
519
517
487
472
478
483
475
475
481
495
509
503
482
476
472
468
485
513
532
521
483
483
484
499
517
531
537
521
516
490
448
437
458
490
525
543
541
521
500
512
522
517
514
515
501
470
466
475
491
519
529
516
496
491
493
501
514
515
515
516
489
457
448
445
480
504
515
528
530
507
509
515
504
494
489
488
484
481
489
500
485
483
499
491
485
467
440
440
432
424
424
444
455
437
437
440
451
472
494
506
512
491
456
424
417
418
441
463
458
458
465
458
457
474
483
505
477
461
475
472
481
474
473
482
486
464
453
477
521
526
492
462
467
483
480
501
529
533
515
520
539
542
537
531
549
541
541
570
563
545
552
555
530
517
512
530
543
556
546
524
516
520
514
488
467
443
454
482
490
500
504
502
507
524
508
509
514
501
497
493
471
469
482
475
483
518
544
549
528
509
503
486
478
491
515
537
508
455
412
398
410
435
467
500
556
624
703
796
898
1000
1023
1023
1023
1023
1023
958
828
709
613
527
445
396
376
375
362
366
377
396
401
387
360
347
356
372
401
407
382
375
379
393
406
401
423
425
392
394
402
417
447
449
447
439
430
411
409
428
440
448
448
454
455
456
457
472
482
510
501
464
443
441
450
452
455
471
482
486
475
454
449
479
500
495
505
525
527
503
489
523
551
544
538
537
527
528
519
513
531
532
548
562
548
540
540
546
560
556
549
526
497
503
519
521
556
599
607
598
580
557
575
593
584
602
571
555
523
501
512
528
549
560
547
539
545
539
536
546
556
538
515
501
478
453
456
467
476
480
498
529
530
506
486
493
496
474
467
449
446
459
481
497
493
508
509
508
504
492
483
481
477
499
503
506
490
477
505
510
499
489
480
482
492
491
504
495
500
529
525
515
505
498
504
513
520
534
523
511
507
514
500
504
538
558
554
538
516
499
498
489
501
533
542
521
501
488
505
527
530
531
526
517
500
486
482
483
510
528
541
529
518
490
464
479
548
563
536
527
526
502
495
495
490
501
506
511
510
500
496
498
520
549
545
517
491
485
496
500
510
520
522
526
528
494
477
487
501
528
521
523
516
490
492
497
497
505
530
531
528
519
498
486
485
493
492
488
518
538
514
505
515
527
535
510
505
496
475
480
514
520
513
518
508
490
488
507
526
531
536
538
539
508
466
479
517
541
528
515
495
491
501
513
536
547
527
532
544
523
517
531
541
534
545
569
573
558
543
539
551
559
569
564
558
532
497
481
491
509
504
482
473
491
506
498
484
505
512
507
501
494
499
500
493
488
492
507
518
487
455
461
471
481
494
516
513
515
500
472
483
519
533
518
481
444
407
392
421
457
481
525
584
653
744
864
982
1023
1023
1023
1023
1023
967
836
722
619
539
496
454
414
384
351
358
357
345
344
364
359
344
344
377
421
432
398
363
339
344
379
407
428
447
444
435
431
410
393
413
453
475
474
463
450
443
428
430
449
456
444
434
427
422
418
426
445
474
491
461
435
422
463
484
466
483
501
508
484
466
475
473
480
497
502
499
499
502
517
517
492
481
485
484
494
501
486
485
502
518
522
530
523
519
524
551
549
530
524
524
537
553
551
553
566
568
568
574
558
556
545
537
527
510
518
535
521
518
525
538
532
515
504
487
468
471
491
511
522
502
477
466
459
448
472
489
515
517
483
448
439
440
427
450
459
457
470
472
452
461
476
476
471
464
467
454
445
459
465
456
486
513
519
532
518
477
453
461
457
470
487
482
454
435
459
467
480
510
514
507
508
516
502
491
490
495
506
496
470
486
535
562
546
516
492
467
452
462
479
492
525
545
545
557
547
500
479
482
484
504
511
502
491
489
487
495
537
576
562
531
520
519
502
478
475
493
512
507
513
509
492
488
505
514
523
531
519
504
510
523
535
547
544
533
503
488
475
484
525
537
536
507
488
491
513
538
546
545
529
517
526
518
490
484
490
509
512
503
509
487
482
506
526
550
540
515
518
495
498
522
533
543
522
506
510
512
483
485
510
526
525
513
480
481
511
528
533
538
555
532
489
493
521
549
540
525
503
496
510
534
553
543
557
589
596
582
567
556
547
557
562
559
528
524
513
485
474
484
486
492
496
475
473
472
461
470
490
495
512
541
517
481
478
485
476
491
509
528
495
472
469
476
492
511
505
485
470
490
493
491
492
469
432
416
410
417
444
465
532
622
719
813
902
994
1023
1023
1023
1023
1023
961
806
674
562
493
454
423
411
416
386
368
358
352
358
360
358
360
362
366
394
420
418
384
363
355
342
343
372
409
420
404
397
410
429
429
442
467
468
459
452
433
426
433
435
431
430
433
471
478
480
478
457
465
479
474
470
454
444
430
425
446
473
498
515
517
513
508
508
525
515
483
476
494
521
525
505
506
522
508
505
502
508
499
491
503
539
560
572
576
550
518
489
478
508
550
555
545
544
537
540
546
538
548
552
538
546
553
547
552
556
559
568
578
561
531
503
498
519
519
525
526
490
442
411
417
455
491
483
461
452
455
472
497
521
509
465
456
442
436
466
477
474
472
483
476
456
459
459
460
482
493
482
471
461
441
426
446
495
512
489
448
438
444
447
458
479
515
523
508
490
475
480
478
471
496
504
502
493
491
495
506
513
521
514
479
480
487
501
529
509
489
483
462
452
485
522
531
529
530
534
502
485
480
485
501
515
507
496
495
513
521
518
508
519
531
515
495
479
489
513
489
475
490
504
507
522
523
487
473
497
518
528
528
520
500
476
475
483
510
508
490
493
487
500
530
550
554
526
497
489
498
529
525
518
490
471
464
463
496
497
492
501
535
559
549
524
521
527
504
504
521
516
508
489
484
487
498
503
507
508
513
517
517
512
517
543
558
535
502
486
496
531
564
578
575
562
549
538
539
545
564
564
561
557
539
526
508
501
481
477
474
480
485
476
476
469
462
470
492
495
494
478
473
458
460
466
486
498
510
492
467
462
478
496
514
504
484
478
479
480
474
491
515
486
406
367
379
428
476
525
562
622
716
839
973
1023
1023
1023
1023
1023
1023
899
768
645
569
521
450
401
392
375
338
328
345
360
378
370
348
344
352
342
365
419
410
381
372
364
358
349
359
387
415
423
438
438
416
391
390
413
440
429
421
434
431
438
454
469
481
502
505
446
424
459
460
452
455
460
468
458
460
456
443
455
482
472
465
487
498
513
514
510
512
512
502
484
484
505
497
493
508
534
541
534
510
484
512
526
539
529
511
504
517
543
553
553
572
563
533
529
553
573
593
579
556
540
542
548
539
529
513
523
547
572
572
560
538
523
527
538
548
534
507
485
463
461
470
475
523
541
511
500
474
472
478
483
509
496
455
428
423
425
438
447
471
493
507
494
464
447
446
466
472
490
509
485
447
429
441
464
483
508
499
473
474
471
473
489
493
492
495
505
512
491
476
485
489
487
492
477
470
493
517
529
527
504
484
461
458
474
498
518
534
509
502
492
481
485
504
508
517
510
505
495
500
504
500
503
515
526
504
478
476
494
507
527
535
501
478
476
499
498
493
499
512
505
489
485
488
480
463
469
493
519
523
489
482
499
479
469
482
513
529
498
479
470
485
514
523
527
520
503
503
485
498
519
521
513
501
504
507
512
499
514
501
513
509
480
493
523
516
502
519
509
487
490
491
491
521
542
553
546
534
534
554
564
537
540
543
562
583
559
538
523
524
535
541
536
522
513
506
488
485
488
473
497
511
489
476
481
501
511
514
516
495
479
478
482
472
472
495
503
490
469
453
457
470
499
497
490
492
483
469
455
428
409
415
451
455
464
504
571
656
749
866
987
1023
1023
1023
1023
1023
1023
899
765
641
548
448
392
379
393
398
381
360
335
306
317
350
364
376
382
376
354
341
339
350
359
369
392
392
384
409
432
423
424
431
419
411
422
422
437
424
418
407
438
470
459
425
438
469
446
448
462
462
443
432
436
445
446
470
487
491
488
497
496
482
472
504
519
489
470
461
466
502
534
538
520
498
487
475
464
485
505
520
515
520
512
503
508
503
507
539
571
580
562
559
544
544
559
544
539
550
559
553
531
532
552
574
575
549
541
537
532
531
535
534
536
515
513
512
497
500
514
514
515
517
501
477
466
474
467
478
500
491
468
440
415
418
464
500
495
483
460
448
450
442
421
411
439
455
471
476
464
453
461
485
494
482
463
458
467
478
490
484
466
456
470
470
466
464
480
498
495
496
490
479
489
489
471
466
477
485
465
486
491
480
478
487
498
510
523
508
480
474
493
501
500
508
508
494
486
494
494
504
524
529
526
517
509
499
490
497
535
547
524
494
492
488
485
493
490
492
481
473
487
481
469
495
536
535
529
502
491
487
489
498
503
525
526
487
467
466
471
508
526
529
522
517
509
525
537
541
498
495
496
497
491
484
484
486
500
515
504
483
482
515
534
521
515
534
530
508
508
506
527
543
521
507
531
567
592
578
572
561
548
532
541
546
534
527
527
515
503
525
531
498
466
458
462
491
503
503
496
485
469
458
468
475
487
479
470
456
466
483
483
478
476
476
475
458
446
484
505
512
517
501
463
431
405
391
387
420
442
454
488
552
639
754
899
1023
1023
1023
1023
1023
1023
989
854
738
634
549
485
435
379
328
333
367
368
342
350
352
332
337
359
369
358
350
350
351
359
385
398
393
379
373
380
403
411
415
411
412
431
467
461
433
406
415
431
439
444
442
441
434
422
419
416
453
478
471
471
483
471
459
478
510
520
506
497
475
473
480
488
491
482
484
508
520
505
495
504
515
509
484
465
462
488
527
544
540
525
520
530
556
552
531
507
508
525
534
534
541
553
536
537
567
581
568
564
558
529
523
550
563
567
595
581
540
526
510
519
529
552
529
500
499
499
487
494
496
495
488
487
491
463
429
433
476
502
476
461
449
438
435
440
461
472
479
460
442
444
432
456
478
489
499
500
480
453
443
456
469
477
482
462
449
471
463
446
470
498
521
500
473
464
463
467
468
457
469
493
496
493
497
510
528
524
501
489
471
478
479
479
504
520
505
482
465
451
472
496
493
520
535
512
487
474
471
479
514
513
522
517
500
491
497
497
497
509
526
529
508
497
490
503
508
511
498
486
492
506
492
474
478
501
510
525
520
487
466
472
484
495
507
512
508
495
485
498
518
530
522
523
514
522
532
523
528
514
482
474
510
497
489
504
511
516
526
510
487
474
498
529
522
529
551
553
556
567
560
556
580
583
576
586
568
532
520
531
549
534
503
502
486
472
467
465
492
515
489
451
422
436
468
489
497
516
502
451
424
437
458
471
491
522
544
521
466
446
450
467
479
482
489
482
476
461
434
398
378
386
416
449
466
517
623
711
806
927
1023
1023
1023
1023
1023
1023
987
829
694
575
476
420
400
379
366
354
339
318
292
297
321
340
353
350
339
344
353
366
383
394
406
395
391
402
411
433
437
428
423
410
392
384
398
405
417
432
448
457
459
437
433
425
414
427
454
465
464
467
480
501
493
473
476
479
488
485
460
462
472
488
498
502
508
505
493
486
493
507
502
505
533
527
518
510
512
527
528
537
547
534
541
525
526
541
559
585
584
573
569
541
528
538
531
545
569
559
554
543
558
573
605
628
604
561
535
529
521
524
532
535
523
514
502
492
520
543
512
479
474
484
480
478
469
472
475
467
465
469
492
488
465
466
462
453
475
477
447
433
443
459
453
430
432
445
460
470
470
476
489
507
494
484
461
439
443
476
503
503
511
510
503
496
499
493
477
458
491
504
484
490
524
527
506
487
487
500
475
454
472
480
505
539
536
518
497
476
463
468
472
484
507
532
544
543
510
505
513
510
516
518
510
504
509
513
524
523
504
494
503
518
495
490
502
504
506
509
523
519
488
484
506
512
532
537
511
498
492
498
506
511
498
492
496
513
514
519
525
527
520
490
492
495
494
496
498
485
487
497
510
540
543
539
536
532
555
573
541
506
497
514
521
525
547
547
519
518
547
588
600
569
564
566
567
539
525
531
532
536
544
549
546
537
521
527
530
511
521
535
510
480
467
468
476
469
473
489
482
463
477
496
507
495
489
471
455
462
457
468
461
475
503
505
494
473
481
493
494
501
499
481
425
387
361
395
424
443
477
524
611
730
847
947
1023
1023
1023
1023
1023
989
843
727
636
559
487
425
388
354
331
329
335
352
371
374
358
353
347
346
353
381
393
416
393
368
355
350
368
411
423
416
401
386
401
412
418
449
463
456
451
434
417
403
391
409
454
495
490
466
440
432
448
467
483
495
501
474
464
464
475
492
496
474
456
466
470
461
477
488
488
502
502
494
491
507
537
557
549
523
503
494
507
538
560
548
538
557
542
500
497
497
510
512
526
526
535
552
571
586
586
567
555
551
548
542
530
507
530
551
541
541
558
563
533
520
518
509
525
526
510
512
513
501
487
477
466
459
450
448
440
455
473
474
466
465
468
458
441
440
460
463
451
453
450
441
440
448
444
452
444
449
457
457
471
456
473
485
468
447
455
458
469
475
466
466
479
493
470
464
482
496
503
487
463
483
513
523
504
493
502
495
469
473
469
474
489
508
523
512
492
503
511
505
486
492
499
512
527
529
516
496
489
489
493
484
479
507
522
489
481
478
489
526
533
501
466
458
467
481
504
516
525
534
534
527
507
484
511
512
509
533
514
478
485
497
496
472
480
503
510
510
500
506
532
521
496
493
484
480
483
499
519
535
521
495
482
499
507
502
515
527
517
519
532
522
511
534
552
545
550
561
568
573
563
550
549
567
559
553
553
543
523
505
490
484
501
502
501
499
499
495
507
528
516
499
493
465
452
468
508
528
519
521
493
461
476
505
530
538
533
500
486
487
482
487
500
510
509
534
534
489
461
450
447
486
525
523
521
563
640
731
861
975
1023
1023
1023
1023
1023
1023
877
736
637
547
460
396
392
403
401
384
377
393
396
412
423
413
414
427
442
433
407
384
366
366
410
440
454
460
464
456
457
457
439
455
474
498
498
487
459
444
438
455
475
480
486
510
498
488
505
539
504
480
467
474
491
500
506
504
500
516
509
500
487
494
512
512
522
523
508
514
502
504
513
519
547
560
534
514
520
525
534
568
581
569
525
512
516
533
573
595
576
557
552
559
571
570
597
611
608
587
555
531
545
551
559
577
573
560
576
599
556
530
540
570
576
536
506
481
478
509
532
526
497
482
485
485
481
477
470
486
481
478
476
475
460
454
456
484
512
475
442
419
421
462
485
494
486
469
462
447
454
487
501
499
493
483
463
458
455
465
487
493
481
484
461
458
480
507
506
494
498
487
476
471
463
485
506
492
486
464
471
495
506
503
518
514
497
503
499
501
500
507
522
526
523
535
534
517
488
474
486
496
499
515
509
511
504
490
483
506
514
495
484
482
491
492
499
498
492
477
459
474
485
493
509
555
557
537
504
482
491
491
503
514
520
506
480
473
474
470
488
522
538
523
497
473
465
467
492
529
535
504
464
456
481
507
513
520
526
518
510
497
493
522
549
525
517
529
538
543
526
508
524
552
547
543
521
501
504
510
513
542
569
561
522
504
486
480
484
494
511
518
510
482
491
507
523
535
523
518
514
498
472
489
527
537
538
535
510
504
506
526
541
532
531
532
530
537
550
537
508
512
518
520
522
533
566
627
722
833
947
1023
1023
1023
1023
1023
1023
1023
989
864
745
648
571
509
471
467
468
463
465
469
445
410
420
473
483
483
478
464
486
504
500
501
513
488
463
472
505
539
555
535
517
525
525
514
525
541
540
538
542
549
542
516
518
528
538
544
537
548
555
537
517
513
521
533
549
558
576
551
524
520
530
548
557
526
518
524
527
535
539
544
563
591
588
573
562
533
530
540
546
538
547
528
492
504
518
523
554
581
584
559
534
531
553
563
571
605
596
544
510
493
507
525
540
543
548
526
497
497
507
515
532
527
501
489
484
458
452
456
462
457
443
430
424
432
434
464
478
455
447
436
405
383
395
413
428
427
424
404
404
408
418
449
446
447
444
422
434
439
419
415
428
442
421
420
437
443
405
389
410
412
407
416
436
445
444
433
415
414
408
425
437
446
471
477
450
428
422
442
458
456
461
455
434
426
448
450
435
431
442
448
451
460
447
435
450
448
434
435
454
455
439
426
427
444
460
472
483
481
474
466
434
421
441
441
449
461
450
431
434
424
429
448
463
466
479
465
442
432
421
431
454
466
452
432
418
427
444
458
484
475
459
447
425
423
441
469
500
484
449
451
444
443
437
443
461
464
458
447
466
490
492
500
490
482
481
493
499
488
495
516
507
501
487
463
471
474
481
485
501
509
509
503
478
464
452
437
448
458
469
458
455
457
466
468
454
444
430
424
416
382
389
418
445
466
493
495
471
478
472
459
486
489
465
424
401
413
452
491
496
480
446
398
385
392
400
410
442
505
559
609
682
756
849
960
1023
1023
1023
1023
958
826
679
567
492
448
417
380
349
338
344
355
357
355
349
339
332
301
280
338
378
387
381
366
348
361
368
375
385
397
398
385
376
392
420
397
384
379
392
406
424
414
411
432
441
445
434
425
412
404
435
461
446
426
422
417
427
413
426
449
461
453
432
413
429
453
469
501
499
472
458
450
453
454
448
478
486
477
461
452
456
462
473
487
462
465
477
489
508
505
507
516
514
519
516
507
510
496
517
543
531
511
524
509
481
479
506
520
502
499
501
494
491
500
525
545
537
480
458
455
433
420
450
492
480
460
459
457
441
436
455
471
468
465
446
444
453
452
460
468
473
459
434
415
402
406
434
450
462
446
426
430
457
455
427
432
468
483
489
501
483
472
473
463
469
464
452
452
457
441
441
463
473
473
469
464
459
459
472
501
512
471
443
429
428
452
483
503
526
517
508
481
460
466
489
497
493
486
468
478
497
490
479
480
480
496
514
527
523
496
482
491
502
492
498
500
488
489
492
484
487
500
497
483
465
439
445
474
533
519
511
502
480
446
450
497
517
523
516
493
467
463
485
519
535
530
527
527
504
492
505
504
492
482
498
494
494
491
489
511
513
511
508
508
501
524
514
491
495
501
498
485
482
484
485
504
526
527
520
521
525
529
538
575
612
588
599
573
537
545
548
506
505
522
503
493
497
490
495
505
510
490
462
458
467
460
465
465
465
469
476
498
513
497
482
494
501
503
508
488
462
450
470
492
492
496
498
495
473
469
469
478
469
466
482
500
473
437
429
444
489
540
581
611
669
770
856
957
1023
1023
1023
1023
1009
904
766
657
568
496
439
403
384
394
389
377
370
372
371
373
362
360
369
384
405
423
423
407
377
355
353
387
416
417
434
434
408
411
419
412
440
461
466
445
432
432
447
458
470
480
473
470
466
452
440
445
460
477
485
473
472
497
530
524
501
470
459
448
431
441
474
503
502
512
514
494
482
474
475
475
515
550
555
542
537
537
542
538
541
537
521
513
532
525
511
525
551
567
556
545
534
520
513
517
528
539
535
519
533
525
528
545
539
530
512
487
482
486
483
490
481
493
498
488
457
440
457
478
494
476
434
409
409
417
416
420
434
478
506
455
438
451
445
442
441
452
454
419
406
425
445
455
466
484
451
417
423
445
468
493
491
472
435
416
446
458
454
463
467
471
466
444
418
415
424
446
479
485
486
490
461
445
471
490
489
496
484
484
490
490
500
510
503
499
499
472
466
481
495
497
494
496
491
503
500
484
485
484
483
487
472
461
481
481
491
512
500
487
496
505
507
501
501
519
526
511
504
483
467
473
485
485
496
494
493
466
453
481
492
504
516
510
510
531
523
489
481
500
528
537
545
536
524
507
498
501
526
542
538
509
503
508
503
515
528
539
518
509
515
527
558
581
550
508
495
477
470
483
506
503
505
526
537
557
548
533
529
520
528
544
532
518
509
512
520
541
523
525
541
552
556
548
530
532
554
561
547
562
577
577
578
558
557
597
596
584
563
541
531
528
528
516
514
517
518
535
523
481
483
501
499
502
507
502
497
500
518
526
504
494
480
472
494
511
524
533
527
520
505
493
516
530
522
540
539
535
505
461
451
483
505
466
431
417
430
488
531
553
594
663
734
798
906
989
1023
1023
1023
1023
1004
856
728
624
547
511
469
439
413
380
369
358
344
357
382
403
398
393
393
392
390
406
408
424
428
419
410
409
437
441
410
399
397
392
402
421
432
419
433
460
481
467
445
442
457
476
474
473
484
495
485
478
469
492
520
518
483
446
446
443
465
469
485
497
504
496
502
505
496
494
506
525
526
517
496
469
471
512
534
547
564
554
541
550
550
547
516
489
482
505
524
549
562
570
571
585
599
585
578
551
526
529
555
560
576
573
558
561
552
527
512
520
554
566
555
539
549
534
532
523
502
495
468
437
449
477
495
504
500
485
472
452
457
456
454
476
485
472
437
437
469
512
495
448
426
432
450
466
468
486
509
508
498
474
461
452
448
475
490
486
484
465
448
457
486
479
475
486
479
479
453
441
462
495
488
475
471
468
463
468
489
489
474
461
468
472
483
503
509
505
510
507
500
473
481
513
519
507
510
524
529
500
461
464
486
514
527
533
511
500
485
481
488
484
486
493
490
488
486
499
512
517
512
492
490
493
483
486
483
499
538
557
558
530
488
491
498
502
517
534
541
530
497
473
485
505
529
549
534
516
492
478
480
509
514
503
508
508
505
519
527
537
528
508
493
483
481
485
492
499
518
529
521
535
541
528
515
499
503
507
503
505
512
489
498
507
508
515
531
518
486
500
525
525
521
514
503
519
538
525
504
504
519
521
513
481
465
485
504
516
521
524
514
508
515
519
525
529
526
570
604
590
577
529
508
518
549
555
526
523
535
507
521
536
539
537
535
532
525
502
489
492
503
502
494
478
462
452
471
511
513
497
500
490
485
501
505
516
534
526
509
511
508
505
481
475
508
549
534
504
470
459
463
468
465
478
481
468
476
516
581
655
753
857
948
1023
1023
1023
1023
1023
978
845
737
649
550
472
436
427
436
421
411
407
380
357
372
393
383
386
411
412
392
397
431
441
428
429
413
418
420
406
408
418
433
465
472
464
463
469
461
455
468
481
476
460
455
474
504
518
505
505
522
494
478
470
471
483
478
480
502
530
532
529
508
501
502
490
482
476
506
519
529
526
502
492
507
539
559
545
522
506
521
532
546
560
542
511
520
541
562
567
598
601
571
563
579
577
569
548
528
543
541
523
540
563
576
592
612
583
554
535
547
568
566
544
531
515
527
535
545
541
532
519
509
499
489
470
477
495
513
526
506
489
471
469
489
508
505
487
473
478
482
481
478
458
447
461
481
488
493
518
519
508
509
517
502
488
485
485
467
462
496
537
511
493
507
485
461
480
508
526
513
511
505
515
506
492
511
522
509
501
500
505
493
503
518
519
523
508
511
519
505
506
521
528
526
524
502
492
500
506
511
522
530
533
533
544
524
511
516
496
489
490
495
497
500
516
553
572
546
513
484
462
480
500
502
504
514
513
520
528
528
516
517
528
551
548
508
493
515
538
540
521
507
500
496
497
514
538
551
532
496
494
498
490
500
510
508
521
507
513
518
518
514
519
529
530
532
516
497
508
522
519
503
502
509
515
524
529
507
488
498
525
538
521
513
498
489
484
473
520
559
551
533
512
481
489
513
526
534
533
525
505
498
504
524
525
525
517
511
522
518
524
535
548
542
522
519
523
530
552
582
592
562
526
514
527
536
526
519
516
519
529
519
470
466
477
485
473
460
479
477
487
497
486
483
488
498
495
488
484
462
474
492
490
509
507
494
483
483
478
485
482
490
491
480
467
455
458
459
453
443
438
450
456
484
523
586
653
723
798
899
992
1023
1023
1023
1023
996
871
734
613
516
447
404
402
424
411
372
326
307
327
371
412
405
388
370
352
343
350
376
390
396
404
399
383
386
400
415
427
416
408
412
451
465
446
429
415
412
419
416
413
429
442
430
438
457
448
419
436
442
433
443
454
476
497
488
459
456
477
483
471
470
464
459
473
468
464
470
479
474
444
437
443
456
485
498
500
504
495
492
468
449
451
481
507
521
531
528
501
482
500
534
533
529
565
562
531
498
479
478
487
512
536
528
503
505
505
504
512
520
523
530
514
476
466
459
488
494
480
479
478
461
468
483
469
450
443
443
424
423
444
467
460
437
438
448
423
400
430
462
481
493
490
432
407
429
442
454
452
465
503
496
464
428
421
431
447
452
457
453
450
457
471
488
496
475
473
478
461
457
469
492
498
494
487
490
478
458
457
474
502
533
517
481
480
492
469
503
550
568
542
516
483
464
468
492
497
501
537
530
494
490
490
518
552
548
530
505
496
507
496
484
482
484
513
524
530
523
497
500
504
529
555
537
514
501
510
524
532
555
553
511
504
507
497
493
521
528
526
525
494
505
525
496
494
549
584
557
521
516
515
497
504
515
509
523
526
529
546
541
539
529
531
527
514
514
515
517
539
561
568
538
502
475
473
489
517
547
582
584
546
516
502
515
505
489
496
530
531
530
538
531
515
528
549
565
568
573
547
538
527
509
508
493
487
498
500
523
536
555
578
545
523
527
542
553
578
589
578
562
572
572
557
556
552
550
552
554
536
521
507
507
509
514
537
538
510
486
478
466
456
458
469
480
485
476
480
476
497
515
515
515
523
536
535
503
497
500
501
513
524
509
509
527
536
521
489
440
456
436
425
464
519
601
678
759
861
958
1023
1023
1023
1023
1023
935
776
645
572
521
475
432
402
395
399
387
378
403
434
445
409
361
356
376
365
356
383
398
402
409
410
401
406
434
439
432
434
441
422
403
432
451
444
452
454
456
482
494
493
485
466
441
439
441
444
458
479
492
505
497
482
481
484
487
498
514
512
477
454
479
520
528
506
492
477
489
502
510
489
491
522
534
555
571
563
532
511
507
506
520
525
531
546
547
531
524
524
541
552
575
593
576
581
571
550
545
550
573
571
552
554
576
561
552
550
526
528
560
564
550
540
518
530
535
523
498
477
481
497
507
502
503
482
451
451
474
488
499
504
481
473
461
443
435
458
503
511
488
483
467
457
451
462
488
494
487
479
474
468
457
485
520
500
482
481
486
483
465
462
465
493
509
503
484
485
487
478
492
521
517
514
499
480
479
484
495
516
529
527
511
499
480
474
486
498
534
551
517
484
480
496
506
516
521
528
532
506
490
497
503
514
520
511
508
519
506
496
492
515
533
523
490
468
486
521
532
503
506
515
505
482
478
478
495
518
523
541
557
526
492
496
491
490
491
489
487
494
505
510
514
523
541
540
497
482
479
491
492
525
545
539
507
476
484
506
507
507
515
510
499
492
512
532
530
504
491
480
484
478
488
498
501
516
536
532
526
505
479
491
505
519
527
532
520
505
513
531
538
511
499
501
517
522
508
496
499
505
500
512
519
525
517
524
551
570
571
568
557
553
538
522
528
542
543
546
530
529
518
508
492
476
475
484
501
489
482
487
479
464
461
486
480
464
475
490
501
517
515
538
526
486
471
467
473
489
493
484
476
500
500
486
465
465
474
462
426
403
413
457
504
548
598
668
775
881
974
1023
1023
1023
1023
1023
951
808
697
605
523
454
422
417
377
352
334
318
333
336
357
391
401
369
352
367
382
396
391
400
416
425
406
380
383
393
396
412
404
397
417
440
461
460
455
441
423
430
439
450
463
473
473
464
448
457
458
456
470
469
474
483
485
475
467
467
471
496
519
516
490
487
494
479
450
476
511
522
503
480
487
502
523
546
547
535
531
494
486
513
520
544
558
551
549
539
520
516
530
547
566
601
583
542
521
529
546
549
544
533
538
527
507
514
533
560
563
563
560
555
562
570
560
532
519
529
537
505
454
432
471
498
516
488
447
443
461
460
451
466
460
457
472
462
447
464
460
452
457
455
458
461
464
464
459
474
510
503
488
453
435
443
483
505
491
470
445
451
459
469
480
492
494
501
500
482
458
442
437
460
508
518
511
490
465
448
446
459
460
479
490
477
471
483
489
501
482
462
456
445
442
463
489
512
506
505
483
457
466
492
504
537
551
512
498
487
463
451
471
481
489
510
515
502
485
477
491
533
526
496
476
485
497
487
481
490
505
510
496
505
509
505
517
520
504
488
484
494
506
495
502
513
518
525
510
510
498
492
498
505
502
498
485
474
480
502
524
528
532
532
534
512
488
475
468
463
482
509
530
526
503
506
513
519
528
515
509
513
511
511
500
504
525
520
526
532
521
527
541
548
554
543
501
478
500
524
545
553
552
542
525
536
553
556
563
552
527
526
525
523
518
518
522
522
519
525
523
490
491
517
519
512
522
520
520
499
462
428
426
465
501
518
502
487
481
480
511
522
508
499
505
506
499
492
487
474
487
519
520
495
470
430
409
429
475
508
555
633
725
838
937
1023
1023
1023
1023
1023
1023
906
759
650
556
490
450
409
383
368
371
354
339
364
393
401
378
351
344
352
367
377
383
390
381
387
392
391
396
411
429
443
448
436
413
412
431
454
470
461
422
427
482
484
459
456
447
440
434
435
453
465
474
483
479
478
468
460
464
467
489
490
474
465
457
476
493
504
507
509
534
511
473
474
486
497
513
519
521
512
513
517
508
520
539
542
540
535
527
536
558
579
578
556
557
560
532
496
490
516
537
564
583
561
530
524
553
564
560
562
564
548
533
532
531
539
531
518
504
517
534
531
503
485
478
480
483
474
460
446
460
465
485
498
464
442
459
458
445
449
469
471
490
494
459
437
445
455
466
480
504
514
509
466
446
430
440
453
451
471
486
474
451
452
470
495
505
501
492
485
489
499
499
507
516
486
453
470
511
552
560
540
517
496
480
475
475
477
491
512
522
505
484
477
490
507
529
516
507
490
502
490
491
504
502
506
516
498
492
499
507
518
533
523
498
483
499
505
502
497
506
509
501
503
510
501
494
499
511
503
486
484
485
480
474
497
524
509
489
492
485
478
486
491
527
533
521
523
534
535
504
536
552
531
516
485
465
456
459
492
513
522
515
501
503
498
514
529
515
488
476
487
493
506
523
519
514
536
545
538
531
511
513
536
529
508
472
481
496
504
536
545
561
604
586
535
529
554
571
584
585
576
581
574
572
550
536
535
522
513
524
516
508
491
470
479
500
525
530
509
488
470
480
482
492
527
523
502
489
473
480
499
499
486
494
499
486
492
512
514
492
478
466
468
479
477
454
431
414
410
437
451
488
553
637
736
843
946
1023
1023
1023
1023
1023
1023
926
776
659
559
479
419
397
386
370
353
346
396
402
375
361
364
359
377
380
366
359
361
366
364
377
387
397
416
395
373
390
398
403
416
412
423
433
420
410
412
426
456
468
469
452
426
417
433
442
446
462
469
458
461
469
496
496
486
477
474
457
455
489
512
521
517
509
499
478
467
452
475
503
513
517
502
476
465
479
512
516
508
524
510
509
529
545
559
556
545
554
561
552
537
541
545
548
552
553
545
557
564
545
527
534
529
514
515
532
531
535
533
507
507
521
537
549
532
516
516
514
490
485
478
469
463
460
464
468
484
492
479
457
435
436
454
478
493
490
459
433
415
414
435
463
480
481
455
428
443
469
481
490
474
463
454
446
452
468
497
511
494
503
490
451
427
458
478
463
459
478
492
491
488
478
474
473
510
520
497
481
492
507
509
504
497
479
461
472
487
485
497
517
508
483
479
468
464
451
473
503
538
549
512
483
490
499
499
510
505
504
516
518
517
499
472
488
504
509
518
509
474
446
447
474
487
518
531
525
496
455
459
495
510
515
526
513
497
475
488
522
534
508
484
490
508
513
508
529
550
523
499
498
500
501
466
458
479
494
491
487
496
506
519
529
519
501
492
483
503
514
507
498
490
469
472
491
504
506
523
536
538
536
524
514
523
538
534
542
560
561
560
565
553
555
549
537
547
572
554
525
503
478
474
465
470
488
483
477
473
463
466
476
478
483
482
512
524
518
521
506
493
483
480
495
477
452
477
505
498
496
496
481
491
481
459
475
482
464
425
394
376
377
419
481
539
613
710
824
916
998
1023
1023
1023
1023
1023
924
764
635
564
516
461
422
403
378
351
357
364
356
332
344
350
344
346
345
339
358
397
392
371
354
340
369
382
371
405
429
423
414
409
417
435
446
435
425
418
417
425
459
479
467
445
424
400
402
429
446
456
479
503
508
484
457
470
473
459
442
464
499
483
472
473
460
466
487
497
494
493
505
521
517
513
527
534
509
512
519
508
494
504
526
537
548
560
550
536
541
557
564
555
563
556
543
540
535
544
549
540
541
557
562
556
530
535
563
562
587
582
558
542
521
523
533
558
563
530
494
471
477
477
478
473
501
504
478
443
413
429
463
492
494
485
474
467
461
461
464
468
466
449
449
480
477
449
458
484
509
494
468
451
468
499
526
526
479
428
417
430
442
478
500
496
482
475
467
464
467
484
490
497
486
473
473
471
471
502
542
533
516
507
513
478
461
465
485
504
525
532
536
525
494
489
494
506
510
513
518
506
503
503
507
502
501
496
488
476
464
469
475
494
514
522
519
515
522
504
498
507
505
494
497
492
488
498
501
520
538
523
502
512
517
517
516
508
509
507
520
505
489
491
499
507
491
486
493
494
473
476
480
496
510
513
493
470
492
517
515
521
525
529
510
487
478
490
497
508
513
518
529
533
533
537
526
509
487
484
475
499
520
512
508
514
506
512
529
548
576
605
601
587
563
560
561
539
521
508
506
537
530
503
482
491
494
490
501
506
499
496
475
435
430
452
468
480
487
483
487
483
472
474
486
473
448
462
476
516
495
458
460
466
474
500
505
493
453
406
393
380
392
425
468
520
574
650
753
864
984
1023
1023
1023
1023
1023
1013
862
701
581
491
432
378
360
359
356
359
349
352
362
372
369
363
379
378
367
367
386
393
386
424
431
409
401
413
402
373
376
401
433
457
482
469
428
408
403
408
432
459
460
450
430
411
424
454
468
492
496
472
433
437
470
478
489
492
486
478
467
467
495
530
542
537
505
468
439
448
473
497
518
522
538
529
506
495
489
499
503
520
530
524
509
496
502
527
537
549
545
544
551
559
558
550
550
546
555
566
542
530
544
551
554
586
602
559
508
514
543
562
553
539
521
500
516
514
511
505
496
505
502
491
464
451
440
455
479
503
499
487
499
482
459
453
447
473
509
484
447
428
429
431
439
439
435
465
485
480
479
483
482
497
484
468
462
446
456
481
477
476
480
510
506
493
480
464
468
468
478
