
811
803
783
762
753
760
782
806
814
800
771
741
725
731
756
783
794
782
751
721
707
715
738
765
775
762
735
707
693
702
723
748
759
748
719
690
675
673
685
700
702
685
655
623
605
607
625
646
656
648
625
601
590
599
622
648
661
654
633
610
598
605
625
649
662
655
635
612
600
605
624
646
658
653
634
611
600
606
627
648
660
655
635
610
597
601
619
641
653
648
628
605
592
598
620
644
657
651
626
597
581
586
611
640
656
650
624
592
575
582
611
643
661
653
623
589
569
577
607
643
662
652
618
578
556
567
601
641
661
649
609
566
541
551
589
633
658
647
604
555
528
538
579
627
650
634
588
534
505
518
563
615
640
623
572
514
481
489
532
585
611
594
543
484
453
464
511
566
594
575
519
457
422
432
477
528
553
533
476
415
380
388
430
482
509
493
442
386
356
369
416
470
497
480
427
368
338
352
402
459
488
472
418
357
322
330
375
427
452
434
380
320
292
309
364
427
463
452
405
349
320
339
398
462
498
485
431
368
337
355
415
484
524
509
452
386
351
369
432
504
545
530
469
400
364
383
448
523
563
545
480
405
363
382
450
530
573
554
486
409
366
385
457
542
586
564
491
407
360
378
451
536
584
563
486
399
351
373
449
539
589
568
489
399
350
373
455
552
610
598
527
444
402
431
515
611
665
646
569
479
425
438
507
589
632
608
528
436
387
404
476
562
611
592
521
440
397
420
496
584
631
613
541
455
408
426
498
584
633
616
547
468
426
448
522
607
655
639
571
490
446
464
533
615
662
644
576
496
450
467
536
616
661
644
576
496
453
468
535
615
661
643
575
496
452
469
535
612
655
638
572
495
452
468
531
605
646
626
557
478
430
440
498
569
607
590
527
455
414
430
491
565
608
595
538
469
429
442
500
570
608
592
533
462
421
430
480
542
577
561
505
440
401
412
464
525
560
548
496
434
399
409
455
513
547
536
490
435
403
411
455
507
538
529
487
438
411
418
455
499
525
517
483
443
418
425
457
495
517
510
482
447
427
433
459
490
508
501
477
448
431
435
456
481
495
491
472
449
434
437
453
473
484
478
462
441
428
428
440
456
466
464
454
438
429
429
437
447
454
453
444
434
427
426
431
438
443
444
439
431
425
423
424
428
431
431
428
422
417
413
413
416
419
421
421
417
413
409
406
406
407
409
411
410
409
406
401
400
401
405
409
409
406
400
394
390
390
394
401
407
407
402
395
388
385
390
398
403
405
400
390
383
382
387
397
405
406
399
388
379
376
383
394
402
404
398
387
377
375
381
391
398
399
394
384
376
374
381
391
400
402
397
387
377
375
381
391
401
403
398
389
378
375
381
391
399
402
396
385
376
373
378
388
397
398
393
382
374
372
378
387
395
398
392
380
370
367
373
384
392
396
391
380
368
362
367
382
395
401
396
381
369
366
372
386
399
04
441
440
415
421
450
501
510
486
458
483
486
494
551
547
494
458
457
500
534
541
555
572
588
620
611
487
394
381
430
487
545
606
628
576
521
523
574
611
624
645
639
622
626
619
600
572
542
510
478
488
564
569
512
459
487
523
539
544
493
400
355
368
394
439
449
391
356
338
339
310
280
294
356
402
378
353
311
298
308
315
334
370
351
326
334
403
476
457
376
359
358
338
363
408
421
405
381
373
408
451
437
407
393
425
480
505
462
406
380
388
418
418
374
410
480
511
490
448
431
440
450
438
411
417
474
490
508
539
531
497
513
544
577
562
492
436
459
516
563
579
557
521
500
509
490
472
498
540
528
488
472
468
480
483
460
440
434
444
480
497
489
499
538
559
535
473
433
444
478
563
597
579
554
497
430
366
332
351
413
487
540
556
524
455
414
437
444
409
397
419
443
461
482
512
525
498
451
464
477
451
462
462
464
456
407
396
451
494
503
527
565
594
654
742
810
846
874
850
770
701
646
575
455
355
301
236
202
218
221
242
316
368
394
463
493
480
452
462
497
562
579
509
444
458
499
519
538
510
462
448
473
538
588
571
517
493
490
495
522
561
541
528
515
467
448
439
423
460
466
458
452
449
445
461
484
505
555
596
598
541
498
554
572
534
522
522
533
569
522
482
512
571
580
571
531
507
524
562
590
623
605
561
535
564
581
570
599
608
571
582
600
590
571
561
584
636
638
578
532
516
490
435
376
345
345
360
358
402
448
432
391
363
347
344
397
457
457
404
344
307
268
279
305
317
334
387
416
409
409
379
315
285
320
377
376
332
348
412
475
475
425
387
393
382
357
337
329
353
416
475
511
516
455
368
352
370
378
374
340
337
384
363
348
388
465
526
480
366
273
260
296
340
398
402
377
360
370
353
294
267
293
321
340
336
363
405
391
316
272
322
364
396
421
418
390
375
341
300
290
296
331
397
427
448
438
410
457
489
477
394
343
322
343
378
430
470
474
438
373
348
370
390
382
381
413
451
434
386
378
407
408
402
391
416
400
371
410
471
534
534
452
409
398
393
411
440
459
470
453
397
376
402
447
477
504
544
585
607
620
653
739
773
802
793
760
725
695
629
504
385
291
249
229
225
271
330
366
379
412
486
530
543
571
585
572
554
520
486
490
510
533
577
589
566
571
574
580
639
664
658
625
588
563
535
537
568
594
610
621
594
576
560
570
603
627
654
653
611
595
614
617
611
616
617
644
665
636
585
585
618
642
654
697
694
646
627
634
654
666
648
639
694
695
658
683
706
729
744
734
726
688
620
548
562
623
700
732
727
688
650
645
624
597
591
568
572
632
637
590
544
495
491
540
542
462
369
347
385
409
430
471
499
452
367
376
409
432
463
510
510
486
451
406
338
367
460
498
453
404
399
390
443
500
498
479
468
448
445
470
506
530
523
520
541
575
576
521
478
436
422
450
504
544
597
637
668
637
578
514
483
512
561
559
562
561
568
574
584
554
555
554
547
542
517
514
574
580
519
508
512
536
572
570
573
610
622
612
583
593
611
609
583
573
604
637
641
602
576
553
505
477
497
555
586
614
623
632
646
630
593
589
583
549
531
564
588
591
576
547
555
588
573
525
517
541
532
540
547
584
611
594
592
587
573
559
556
558
531
547
551
534
528
543
539
532
563
624
663
634
591
562
526
505
539
615
677
707
751
804
818
846
840
782
777
774
729
695
609
515
450
404
342
299
296
318
376
433
456
492
542
538
566
617
627
581
517
497
509
498
528
576
606
603
595
597
605
595
570
536
581
652
655
590
582
576
578
566
592
618
560
526
535
515
528
564
604
638
647
605
575
598
587
571
584
608
620
585
575
604
640
662
661
643
641
660
667
601
566
578
619
652
658
651
628
616
639
652
654
699
727
719
725
717
711
693
671
628
608
643
669
687
669
631
585
585
590
583
551
527
530
573
593
574
494
429
426
435
433
458
478
487
445
405
408
402
400
410
402
405
446
509
527
523
498
459
412
416
429
431
406
416
459
482
474
457
442
438
465
503
536
527
500
492
495
463
461
472
488
461
464
486
495
514
539
561
549
503
499
532
528
523
507
525
527
498
487
538
570
541
490
465
491
526
506
477
456
449
489
540
551
552
536
508
504
536
588
575
556
558
535
516
491
431
406
459
493
527
562
573
521
470
451
461
478
519
558
580
599
616
632
572
500
473
466
472
497
535
524
491
459
465
518
553
575
608
605
600
599
583
531
482
477
501
530
530
519
506
505
519
495
448
405
398
456
523
578
632
614
543
496
503
529
559
570
576
577
553
517
444
424
463
474
484
477
469
487
508
513
556
580
593
599
621
629
658
725
795
821
829
824
811
771
750
699
601
474
349
274
204
186
253
329
384
451
447
399
363
387
468
560
578
586
565
502
480
473
482
505
536
584
603
540
485
485
529
564
583
571
573
573
560
513
476
475
521
575
623
597
529
490
479
483
472
455
494
537
569
581
537
544
591
595
543
530
576
591
568
549
538
541
557
608
649
683
691
666
623
619
604
579
566
568
587
602
604
635
671
697
717
685
653
638
619
629
684
691
635
573
556
553
574
623
613
560
530
513
532
554
541
506
474
438
403
389
432
468
479
484
478
474
450
404
339
327
391
430
429
413
408
378
383
413
472
527
488
414
369
392
416
414
411
446
455
438
459
461
446
450
473
447
427
416
409
441
485
522
496
432
406
439
455
468
444
441
451
443
448
454
458
467
475
495
486
491
512
540
534
497
469
465
487
521
504
465
430
410
434
452
467
469
441
397
372
391
417
449
475
485
482
461
430
416
417
422
436
457
472
474
475
470
432
434
465
455
441
462
505
510
503
484
421
380
392
423
472
514
517
512
511
504
506
522
522
511
512
514
490
473
463
458
455
446
452
497
540
555
536
519
522
519
519
520
500
470
460
461
456
434
434
444
454
460
455
464
481
495
538
552
516
452
421
445
485
481
437
422
424
402
432
474
504
502
471
471
504
552
545
511
483
476
450
417
441
482
535
598
640
653
712
800
835
867
856
819
754
696
636
559
503
424
311
201
133
152
202
260
358
421
443
479
493
484
526
575
585
572
554
524
496
494
506
530
565
596
572
540
548
533
508
482
488
507
535
520
487
480
515
549
536
532
524
526
541
579
592
570
553
536
567
593
591
560
549
554
537
519
530
546
540
544
534
543
544
548
576
614
635
608
585
597
596
571
566
589
626
655
650
665
642
622
603
619
673
727
739
669
612
618
635
657
659
623
593
565
553
567
586
525
467
441
424
418
456
459
477
478
458
467
463
429
398
370
377
391
393
409
445
428
397
377
369
363
393
428
470
458
427
435
422
365
319
383
473
508
486
433
420
447
503
531
534
522
502
456
434
434
471
506
527
529
515
496
433
418
475
523
511
483
476
472
512
533
519
511
503
509
499
547
566
546
516
517
506
472
484
525
548
573
534
481
456
475
537
561
543
526
496
494
489
475
511
557
553
528
513
495
508
523
543
532
484
443
464
508
546
543
520
523
500
452
476
524
527
535
521
532
537
530
514
498
515
539
545
529
511
531
559
548
505
506
545
547
526
530
517
529
572
610
620
567
524
491
494
539
547
503
452
428
429
482
518
523
527
511
487
482
471
446
454
494
483
466
551
591
583
587
573
561
575
564
505
508
517
495
489
497
468
444
465
489
478
439
446
496
527
538
543
551
591
612
648
731
824
873
859
821
798
784
724
625
512
429
362
282
246
247
261
298
337
360
387
442
490
505
523
543
554
546
551
559
540
503
488
505
563
605
584
529
519
497
480
486
499
544
557
561
544
590
637
594
549
520
499
484
504
553
594
597
586
576
566
555
544
523
497
483
487
515
556
540
543
586
626
635
632
639
627
593
586
594
598
604
608
604
624
632
637
647
659
652
607
601
627
683
718
705
666
642
636
656
662
640
619
600
585
579
600
587
544
546
555
541
487
445
457
469
466
468
491
473
438
412
400
415
447
485
512
470
407
338
296
318
365
388
412
458
434
380
379
406
396
388
415
445
455
471
484
488
466
446
469
505
462
404
404
448
448
476
514
493
446
434
439
445
433
449
475
499
504
503
489
479
459
461
495
522
514
516
519
508
486
512
540
525
500
486
460
460
477
486
486
503
505
506
508
499
512
541
504
449
426
444
453
463
471
463
429
411
388
383
428
505
541
501
430
404
440
480
505
513
514
507
478
463
458
460
505
539
557
587
550
495
457
479
530
562
545
467
431
441
475
484
468
471
474
459
453
453
450
467
518
555
560
501
441
405
390
414
488
562
591
558
542
548
575
591
536
485
485
516
502
475
455
451
476
502
530
530
498
497
562
612
643
655
708
799
832
818
813
771
698
596
487
435
407
367
323
290
254
249
302
350
355
402
472
496
502
511
546
561
552
530
512
500
538
524
463
461
506
489
489
567
582
562
544
518
516
525
546
581
582
562
567
595
624
619
575
568
578
556
521
495
459
462
506
557
510
506
542
578
580
573
592
635
617
586
596
579
543
555
576
579
574
575
602
617
627
667
678
652
612
585
581
596
626
680
735
719
716
729
716
689
652
601
602
612
621
653
660
634
571
514
462
460
495
498
488
442
385
369
407
448
496
494
460
439
412
391
374
377
375
372
353
362
420
462
468
442
344
300
348
410
473
505
492
473
436
404
377
364
378
386
403
431
424
403
446
495
506
489
453
444
466
436
430
462
456
433
473
491
476
488
486
482
486
503
501
554
554
522
493
458
444
473
480
505
522
543
520
444
407
444
487
506
493
460
432
430
452
485
467
454
504
557
575
558
556
568
576
563
573
567
555
505
391
358
371
400
457
520
541
535
487
455
473
509
532
546
535
532
518
480
424
446
507
546
548
523
506
505
490
472
503
552
537
515
545
553
513
475
503
525
520
514
508
509
497
479
497
523
525
496
502
521
515
477
447
443
478
542
555
568
573
519
483
475
456
453
467
471
484
507
528
551
531
481
461
472
504
506
501
536
567
587
556
533
506
530
584
616
677
760
817
823
824
841
813
785
769
672
518
368
282
224
194
216
268
326
391
432
451
449
461
502
535
541
546
538
530
510
497
489
472
467
502
524
522
532
559
580
526
451
457
494
542
571
563
540
528
557
582
596
591
560
500
499
533
536
508
495
532
558
568
553
535
488
469
507
523
535
522
531
567
614
619
605
630
606
532
523
541
555
566
606
629
662
683
657
635
610
581
585
607
617
612
602
627
616
594
632
667
671
656
644
598
572
617
582
524
498
508
516
534
550
517
478
477
499
474
414
396
392
387
388
407
430
431
411
374
350
367
401
392
372
394
408
395
362
361
388
398
386
383
391
414
476
511
507
506
472
434
424
414
429
443
453
486
492
466
439
433
436
446
475
475
469
498
518
475
448
433
428
436
428
455
504
548
526
481
453
426
439
484
535
547
523
501
487
500
488
475
468
501
534
536
523
479
450
455
434
467
481
442
422
430
469
503
513
527
551
594
620
561
497
459
447
465
497
513
500
461
477
518
520
484
454
464
460
455
474
503
519
521
536
534
543
558
586
578
509
450
445
441
447
472
500
509
506
496
491
502
479
453
449
487
490
491
488
470
458
487
517
498
486
483
502
521
539
553
553
513
489
471
465
489
502
501
507
468
452
477
502
532
577
621
707
787
799
809
860
875
832
766
668
562
486
436
378
270
202
220
259
258
268
309
374
431
456
472
489
490
506
535
537
538
557
537
503
483
493
510
513
524
522
517
522
518
539
550
542
548
517
482
477
515
546
584
567
534
537
520
527
566
559
516
514
497
455
463
503
532
507
484
531
555
569
592
591
593
606
616
618
595
548
518
532
597
656
654
613
582
582
592
613
654
681
672
615
599
632
689
696
682
671
669
631
579
543
550
594
637
619
587
593
594
545
513
489
470
463
449
458
447
412
411
425
417
398
353
340
381
405
403
412
407
375
374
363
360
364
373
384
401
409
426
436
432
423
415
413
429
406
408
423
440
483
490
465
439
427
414
429
456
476
478
444
438
468
478
453
444
434
438
443
441
425
455
478
489
526
561
570
508
481
473
466
469
452
446
472
504
499
450
414
400
416
456
508
518
514
531
534
509
484
526
539
489
451
433
440
449
486
521
522
518
541
561
564
514
418
348
335
399
457
497
503
481
466
470
475
517
536
505
476
488
497
543
609
594
538
538
528
504
510
518
502
495
477
490
510
544
572
577
516
441
413
441
478
473
472
450
430
471
489
495
518
515
474
452
465
478
483
494
501
493
497
487
476
513
515
504
528
562
532
482
456
492
511
498
489
480
481
496
505
499
481
521
568
635
730
813
841
838
789
729
708
638
547
500
434
352
282
250
246
269
291
337
387
442
490
514
485
473
487
485
517
545
522
472
459
485
505
556
588
559
556
557
543
530
503
507
540
536
523
507
494
532
536
518
560
578
556
516
484
482
508
580
636
619
547
515
500
477
457
462
517
538
525
475
503
553
583
603
627
642
627
637
649
645
634
593
535
523
567
612
613
608
579
573
568
614
622
587
578
611
676
685
679
659
675
678
653
612
583
580
573
584
582
569
518
480
457
467
438
428
422
401
395
406
403
383
363
381
418
409
349
323
347
353
379
407
409
403
426
438
455
440
423
417
439
465
439
400
377
395
419
419
418
422
447
465
458
441
454
488
488
466
440
429
427
396
392
417
471
515
554
559
533
473
439
451
441
419
434
453
468
476
477
508
507
475
450
448
470
508
526
520
532
532
515
462
415
429
511
541
510
487
473
471
495
511
510
540
539
530
537
537
552
542
445
344
307
378
494
561
571
536
509
515
509
501
505
534
570
559
547
549
545
526
539
555
517
461
440
466
503
490
442
411
448
477
516
518
499
493
506
514
471
419
419
434
500
605
636
603
560
532
524
541
545
498
441
434
440
469
513
531
484
438
436
477
493
515
571
611
608
620
636
698
756
803
829
804
758
713
672
596
500
389
317
264
206
204
262
338
401
419
430
454
501
529
528
519
482
453
464
505
540
521
502
516
554
579
566
571
505
452
452
500
510
550
570
535
546
562
594
613
613
570
536
568
567
527
561
596
537
464
439
485
533
520
521
548
549
552
568
580
574
584
589
562
528
513
528
554
593
637
628
602
611
598
620
633
622
637
664
685
685
676
654
657
661
628
618
647
696
681
613
582
581
564
570
564
554
552
567
599
605
565
509
482
458
412
398
416
447
418
386
338
349
438
496
480
422
398
385
373
382
387
397
386
380
384
397
422
448
450
440
401
396
421
438
454
426
378
378
446
504
527
516
476
439
413
385
397
437
447
470
501
496
460
446
476
490
491
474
470
516
542
554
556
524
482
480
469
445
453
502
495
462
464
459
450
483
525
543
518
507
496
497
484
509
555
560
561
539
520
502
493
502
497
479
478
462
435
404
430
473
503
519
543
541
534
540
544
550
550
569
557
524
517
519
510
510
525
542
531
520
540
541
510
531
553
525
492
488
484
493
502
489
456
451
483
546
581
573
549
548
536
540
520
504
543
563
513
471
447
460
456
440
447
474
517
542
538
527
526
527
527
539
502
464
468
482
489
545
608
629
668
722
769
808
827
810
828
818
748
650
577
520
473
391
281
212
226
245
287
350
409
387
370
397
434
459
535
599
592
542
496
496
526
543
561
562
547
539
518
538
571
569
570
562
530
507
521
538
542
533
542
522
498
445
440
495
557
547
551
532
559
589
615
626
597
529
505
528
558
580
606
602
587
589
599
570
517
536
566
559
560
567
595
619
613
602
605
589
603
638
666
690
682
697
700
681
688
687
685
686
685
677
633
604
613
618
655
682
628
552
520
503
485
443
397
387
416
454
462
461
448
432
422
429
430
429
434
436
400
369
392
418
430
456
468
451
414
394
369
343
416
511
485
434
435
420
379
364
402
442
463
457
446
443
458
473
464
467
471
476
489
502
535
546
521
493
415
413
470
497
488
471
486
498
475
463
452
444
467
459
460
511
542
536
525
543
537
537
561
564
535
522
532
543
511
457
444
480
518
555
556
502
485
488
491
514
532
516
490
488
483
474
477
505
516
536
538
514
497
515
556
578
556
514
478
460
507
557
592
647
648
603
578
520
454
464
534
569
541
502
520
545
501
467
475
489
515
541
529
514
497
462
489
508
494
478
501
525
530
538
508
499
519
534
550
545
543
538
569
579
526
482
469
472
462
453
488
516
514
527
586
587
561
558
586
603
695
801
861
887
897
879
884
818
676
536
431
338
220
160
188
253
326
386
411
428
453
477
511
532
543
544
562
562
523
493
494
501
521
544
563
591
580
550
554
578
564
549
537
554
593
606
571
539
513
560
577
582
589
567
542
519
517
507
516
551
552
559
584
624
604
545
522
508
502
539
556
588
608
610
572
525
558
580
555
577
601
611
625
652
677
695
684
652
624
625
636
639
667
694
695
664
625
623
638
656
658
639
636
594
538
534
556
562
525
504
500
553
607
583
513
438
417
451
447
420
370
362
427
450
436
404
361
372
407
390
397
446
441
398
420
423
400
373
354
368
384
378
415
446
491
497
471
428
399
397
420
452
473
462
471
489
474
439
450
482
491
463
471
471
433
412
412
464
491
486
460
414
423
466
472
490
485
474
462
495
537
489
470
513
530
543
541
536
532
519
554
545
458
398
374
407
416
434
462
481
498
499
449
405
440
491
499
494
472
480
498
498
484
497
545
575
572
555
551
538
527
494
470
484
514
524
466
385
358
403
443
478
485
508
505
501
500
512
550
596
590
541
525
518
505
495
480
461
437
452
502
466
428
390
343
389
507
544
537
527
485
470
468
490
514
505
509
510
502
508
526
525
475
420
399
389
402
428
413
430
462
523
519
494
480
496
562
667
770
810
844
889
909
866
807
706
547
416
334
265
222
207
206
243
299
375
411
401
402
399
435
492
491
475
487
464
441
453
465
466
466
478
494
507
526
533
552
572
574
566
550
516
530
533
482
442
473
503
500
490
516
523
506
551
551
484
444
481
481
455
438
486
551
561
559
550
568
593
549
489
467
489
526
547
565
591
576
583
601
579
551
552
589
611
581
575
631
632
610
613
622
645
623
598
594
605
644
667
664
663
604
542
562
573
545
527
527
529
513
490
489
487
434
389
399
427
415
385
349
313
316
371
411
417
414
393
383
386
365
337
331
356
385
424
407
358
389
424
449
466
436
434
446
436
400
347
349
388
418
425
419
404
397
395
395
436
465
489
514
538
522
456
408
403
459
516
491
470
487
501
498
485
443
410
466
523
512
447
393
385
399
450
477
457
428
402
439
483
521
544
518
460
438
453
508
564
600
568
518
481
474
465
456
460
481
490
493
501
483
471
496
467
474
458
441
442
454
492
513
517
534
534
564
581
551
536
532
541
572
595
578
493
452
446
424
426
443
396
406
458
485
456
409
420
473
493
481
496
518
500
513
529
532
508
461
439
469
513
520
525
502
445
472
529
545
539
487
437
425
425
441
493
560
592
586
611
674
758
810
825
819
792
760
722
674
577
478
378
281
220
242
251
222
201
244
338
435
465
464
452
463
503
528
536
481
434
439
452
460
486
512
525
518
508
508
524
561
586
538
500
486
480
517
551
547
532
503
467
440
479
528
574
608
601
566
506
464
453
462
490
485
458
458
496
553
602
628
623
600
594
585
586
603
553
490
502
573
600
595
591
615
662
668
639
639
630
616
618
616
583
583
612
649
659
632
613
601
602
579
604
651
635
581
564
534
498
482
468
477
493
465
428
414
396
408
407
376
359
377
405
390
376
382
424
450
454
421
397
393
389
409
423
399
397
401
402
413
415
404
390
383
379
381
394
406
445
464
494
503
507
493
446
394
411
462
497
478
458
445
483
495
448
435
462
488
473
447
451
471
506
503
468
457
474
499
478
470
464
474
496
469
429
424
466
505
550
533
505
498
499
500
497
487
468
453
470
514
520
510
480
444
416
451
488
494
498
494
495
531
591
574
502
460
470
445
452
483
497
519
512
492
516
514
458
442
453
482
526
527
509
487
465
467
456
458
510
603
646
605
581
572
544
493
465
457
467
493
502
504
498
491
463
465
474
481
504
478
464
464
495
498
470
474
504
500
483
487
508
521
496
459
451
473
488
503
515
515
535
517
476
455
490
522
504
477
443
419
444
519
614
688
752
821
867
873
869
839
786
722
628
523
428
342
274
226
203
217
258
297
314
348
434
444
430
429
417
475
531
502
489
522
552
558
531
512
517
534
544
554
571
574
582
569
539
487
450
452
494
504
471
439
437
398
408
464
535
572
577
587
596
596
571
544
554
587
625
608
582
525
490
505
553
573
555
546
545
521
552
566
598
623
613
581
564
605
639
658
677
636
620
623
642
689
746
765
700
632
591
589
582
599
625
631
652
667
656
643
598
554
547
533
490
447
430
428
443
489
495
457
449
446
404
346
326
371
397
395
403
396
359
337
375
446
460
427
433
455
438
448
457
479
474
448
441
412
394
401
420
408
387
379
396
384
401
438
464
460
462
449
464
481
509
538
533
509
489
500
523
530
485
441
430
450
458
436
467
533
543
491
445
420
429
439
451
492
541
542
528
498
473
468
475
470
463
467
486
532
593
633
619
570
505
456
396
363
367
418
502
550
544
528
538
556
536
499
488
482
452
466
495
492
487
501
516
508
512
510
483
485
521
544
556
555
517
495
501
506
485
503
492
460
445
453
481
481
443
429
425
439
479
502
533
545
515
469
502
554
564
539
534
517
499
501
491
468
495
573
596
582
500
413
405
479
508
454
396
401
432
483
529
573
645
718
781
820
829
865
865
799
729
689
622
535
416
313
236
219
223
228
281
355
437
452
415
407
439
454
476
516
547
554
567
587
592
562
542
513
506
492
500
509
505
522
526
508
498
517
546
592
621
608
578
579
593
608
549
490
487
540
558
539
533
552
609
588
549
540
539
541
552
587
621
581
536
509
508
539
576
591
580
570
581
604
630
670
664
664
663
638
614
607
601
617
651
722
743
661
622
645
665
664
688
714
695
639
591
565
558
582
602
605
595
569
524
509
514
478
410
377
345
368
441
478
492
489
447
394
408
381
312
327
408
452
439
417
408
431
455
440
408
394
381
382
390
393
418
466
458
430
432
458
488
515
519
462
410
398
413
456
501
510
482
462
464
465
457
465
478
489
491
487
475
516
559
542
479
437
434
447
488
543
557
525
503
465
436
453
461
478
539
536
509
493
470
491
509
506
491
479
493
515
505
470
472
513
537
528
539
600
609
552
491
453
425
443
539
567
514
465
476
516
546
525
501
459
459
522
554
532
534
542
553
560
556
537
531
525
512
504
504
538
606
626
564
512
495
465
454
464
489
493
492
471
441
451
499
505
503
502
519
549
551
545
536
493
458
467
480
479
514
551
559
577
551
504
463
450
475
501
497
488
493
502
522
546
546
548
595
658
706
761
824
865
867
835
782
781
737
619
464
366
304
235
174
176
228
306
369
416
433
439
419
449
495
538
578
585
582
565
547
532
532
551
526
510
556
589
558
500
475
485
508
547
596
589
506
449
477
544
573
558
543
544
542
560
566
563
551
553
579
596
576
545
549
549
533
562
558
581
627
625
616
620
638
631
583
538
507
530
568
598
635
609
593
629
660
667
662
662
658
662
643
630
628
649
672
701
710
678
639
642
652
692
672
575
551
550
555
550
529
497
455
408
398
451
474
462
461
461
462
439
410
389
395
412
418
432
421
385
375
390
419
424
433
450
468
463
422
356
363
411
424
411
426
468
494
487
451
413
413
428
429
471
485
481
511
500
446
430
429
424
463
511
566
569
506
460
442
430
437
455
474
481
463
462
439
429
455
500
539
565
580
545
483
437
449
461
485
517
516
530
546
562
552
511
478
469
447
460
521
557
552
530
536
497
457
492
504
480
459
471
467
467
473
501
509
491
539
553
510
486
539
556
519
525
559
568
559
535
520
535
549
554
555
574
539
517
544
551
501
436
412
386
372
396
445
511
525
523
501
469
480
502
499
480
510
585
577
540
532
523
509
535
516
487
505
529
508
490
465
441
457
508
530
536
539
536
530
518
496
521
565
640
713
766
823
872
876
811
786
748
662
554
467
370
284
262
281
290
284
302
352
416
429
420
428
450
464
474
520
566
563
554
516
464
469
536
583
606
618
590
560
541
515
501
500
501
506
532
538
526
497
460
455
493
560
560
530
526
518
514
533
523
533
517
512
543
601
635
623
595
566
533
534
575
579
534
515
566
617
620
600
593
584
569
559
571
572
574
634
687
681
668
655
588
591
614
658
692
727
730
702
647
617
603
590
601
611
615
632
616
592
560
534
505
453
386
389
413
452
498
506
470
438
452
400
339
319
327
341
389
433
443
390
341
348
366
388
440
488
495
476
458
430
440
482
509
469
409
365
364
407
453
474
435
415
441
451
479
479
439
423
454
487
496
487
458
434
442
466
495
488
469
495
520
559
535
480
480
506
494
491
545
579
536
485
459
450
469
527
541
512
527
544
517
495
487
481
475
482
496
487
468
488
539
587
598
576
547
586
591
519
413
383
414
436
446
451
489
519
524
560
544
489
475
493
496
508
543
602
607
576
562
546
554
558
550
531
494
496
521
572
567
507
487
452
431
453
488
463
435
432
453
460
456
503
567
562
545
538
494
440
456
507
547
586
589
586
575
520
468
458
490
522
512
492
495
497
519
513
512
498
523
584
647
708
792
843
840
845
851
819
719
635
555
463
392
325
275
235
226
271
297
282
293
357
420
489
541
547
522
512
516
514
502
467
510
555
551
532
558
557
514
508
528
533
516
519
519
536
558
544
537
565
587
557
504
483
488
489
503
516
515
508
525
557
564
554
542
517
527
551
579
586
598
614
658
661
626
535
462
462
488
532
561
567
561
599
640
614
594
611
611
637
675
697
710
711
699
716
736
727
693
604
534
562
607
623
588
533
521
556
594
590
519
451
419
435
461
468
464
471
502
477
426
394
415
409
388
402
414
381
360
369
393
403
391
400
431
452
454
409
387
399
397
395
405
417
380
343
346
394
467
486
518
486
433
380
391
449
475
494
485
435
439
466
487
507
498
488
484
496
499
481
478
474
475
491
497
514
503
457
437
435
419
431
485
506
452
431
489
558
535
480
443
432
448
483
493
517
526
537
502
480
484
476
451
468
526
571
561
532
517
493
441
429
478
513
490
483
484
484
510
523
532
524
483
498
551
577
565
575
556
505
484
474
457
457
464
503
554
586
585
567
523
472
446
424
433
457
477
461
461
472
440
426
452
509
573
571
520
487
508
514
502
496
507
538
519
500
500
499
506
537
558
540
507
498
492
446
441
482
532
581
652
713
764
801
850
876
821
746
700
635
550
470
386
294
223
211
254
293
356
392
409
457
455
432
448
468
503
543
562
527
504
480
504
541
562
568
563
550
551
559
557
540
511
520
548
550
554
570
567
563
557
531
520
495
487
495
507
557
610
610
585
567
599
596
582
586
563
508
497
497
541
634
630
555
548
594
626
589
571
567
569
552
589
646
651
636
665
689
674
624
623
639
645
687
705
657
638
649
636
626
611
598
602
604
619
632
602
584
565
522
508
567
566
509
471
444
419
393
384
386
391
423
444
433
415
387
385
352
334
366
369
367
375
379
389
385
398
407
423
401
357
390
465
461
458
464
464
451
420
403
398
422
450
428
388
369
414
455
445
448
451
447
451
466
466
438
445
482
556
590
558
518
507
519
505
490
513
522
480
464
466
454
480
515
497
461
467
482
427
377
445
495
510
532
548
525
505
483
474
490
531
565
566
542
525
503
465
458
501
507
524
508
462
488
559
590
569
535
509
495
517
550
550
514
507
485
480
497
507
514
510
528
510
489
485
497
473
451
456
438
447
502
556
533
498
510
525
538
556
575
547
513
527
538
538
484
453
471
503
531
517
521
521
526
519
491
459
434
448
504
551
589
607
646
736
817
857
848
826
801
776
774
687
521
366
243
231
236
234
303
386
448
445
399
392
432
462
483
512
531
538
529
520
512
566
609
576
548
554
546
554
544
546
536
530
539
521
502
512
506
484
490
510
532
562
584
612
612
592
557
552
560
531
499
489
514
551
541
518
533
547
557
568
560
562
586
587
579
562
572
586
595
608
619
640
676
678
639
589
594
651
634
585
589
617
622
661
666
624
603
619
636
637
636
625
618
653
668
607
539
521
566
574
516
474
513
548
550
509
459
424
387
360
364
387
412
426
419
402
383
354
367
398
390
389
378
381
371
369
419
419
411
419
439
462
460
434
425
450
490
475
410
364
386
420
438
429
441
461
509
521
476
481
489
484
466
473
479
475
490
491
509
506
461
458
454
438
449
460
449
465
538
565
550
517
481
456
437
462
468
484
516
589
592
520
497
501
528
564
540
475
447
452
458
433
422
453
488
490
488
544
611
620
533
468
510
540
505
488
496
508
581
604
552
509
478
451
456
492
517
519
529
517
478
497
538
528
487
445
408
431
485
553
537
473
465
476
508
508
502
491
502
516
475
447
496
520
542
515
473
456
462
483
508
517
546
566
555
528
505
493
495
501
486
504
556
608
662
689
703
737
825
883
849
761
658
574
488
443
393
332
266
237
232
234
286
372
428
451
480
495
505
508
505
519
529
533
519
500
551
586
545
518
574
581
498
466
507
553
543
532
523
538
538
512
517
519
494
472
490
522
561
593
612
610
611
631
648
600
522
475
487
473
476
540
582
587
584
567
547
522
527
578
595
587
590
603
600
579
575
581
614
633
639
648
672
665
663
663
643
633
650
640
632
660
674
652
635
591
548
550
590
633
645
615
568
532
493
469
480
508
520
500
468
476
473
431
357
308
333
369
367
391
454
485
448
376
333
340
362
365
371
429
474
472
425
409
411
429
427
382
398
439
409
387
420
452
468
488
491
456
437
433
443
451
480
476
474
469
440
409
416
457
509
538
526
525
506
469
471
479
481
488
480
450
441
459
473
503
521
506
515
523
525
527
464
423
438
449
460
513
543
500
505
511
534
535
518
540
568
567
507
464
450
481
529
532
530
527
518
540
562
543
502
440
407
453
516
545
563
545
501
498
541
574
556
545
510
489
489
500
514
512
516
487
474
460
485
490
483
495
482
464
493
513
537
557
515
489
502
507
474
472
531
550
504
464
468
488
527
527
526
549
575
541
467
427
436
503
562
559
578
619
640
674
753
788
801
809
826
816
741
638
537
428
319
250
223
200
236
308
365
405
420
420
443
519
555
541
507
500
506
510
461
415
445
505
544
548
517
546
596
591
520
478
479
501
510
511
533
544
512
502
517
552
605
607
586
564
557
539
550
561
529
513
517
505
505
488
481
500
524
562
585
589
561
553
595
621
597
562
558
571
574
608
656
669
641
590
549
520
539
611
695
678
679
696
708
656
619
612
603
599
587
583
616
624
619
608
587
627
631
567
539
525
474
425
429
426
437
438
416
392
380
377
377
381
385
361
394
440
430
420
411
398
402
405
379
375
358
369
414
432
407
360
365
400
390
389
421
401
416
428
474
501
504
488
476
460
435
444
460
443
455
463
464
459
470
476
480
474
460
448
436
455
476
451
475
533
549
515
484
469
466
451
476
514
524
513
510
486
406
370
441
521
510
471
471
507
541
543
536
513
467
452
483
496
483
493
485
452
457
490
483
477
494
520
539
510
479
516
538
492
462
450
457
484
518
536
527
519
516
536
596
607
536
477
482
512
530
502
462
428
422
430
403
416
426
472
465
459
503
513
483
443
428
444
480
494
510
529
555
568
544
503
531
534
508
478
475
456
427
450
485
486
471
467
463
500
564
630
670
679
696
753
833
863
818
775
724
663
590
489
395
307
238
211
255
325
337
349
373
385
418
449
457
486
499
499
519
523
498
446
470
528
557
549
549
572
574
554
535
517
494
522
538
548
551
541
538
521
514
533
500
467
479
555
589
565
491
464
504
528
510
473
511
576
606
623
625
631
642
624
572
529
511
530
574
570
559
571
558
562
605
618
607
599
598
614
617
614
665
702
672
641
616
597
637
687
682
660
664
634
613
628
600
552
534
548
535
537
534
525
488
458
428
433
446
447
437
384
341
358
414
444
455
449
445
437
440
418
377
388
371
354
354
363
397
407
421
430
429
446
449
437
406
399
405
418
423
452
467
479
493
461
434
439
461
494
486
437
436
505
524
520
539
536
474
416
388
390
428
498
540
524
528
528
542
560
551
513
492
484
475
461
489
509
499
476
467
524
567
563
513
474
468
492
519
518
510
531
559
561
534
538
569
593
596
557
486
448
496
533
522
478
457
497
524
467
440
486
537
590
619
628
587
550
549
532
506
521
530
536
534
530
556
601
583
523
451
432
477
482
449
453
488
525
548
516
467
485
539
527
509
516
500
533
545
515
540
584
587
558
547
535
515
523
500
481
513
555
540
544
542
554
563
529
495
556
666
758
828
882
891
893
846
740
636
554
474
397
323
288
265
260
291
339
397
443
503
544
534
483
460
468
467
445
465
534
576
551
528
539
576
598
572
521
495
531
586
599
598
609
573
561
586
587
550
486
472
491
527
531
528
550
569
556
558
542
524
562
593
583
550
533
566
596
620
649
661
644
628
624
589
593
604
586
554
561
554
497
510
565
587
578
610
658
682
662
645
651
653
655
657
696
717
706
627
610
664
695
689
642
612
623
591
503
414
411
465
481
466
473
487
482
462
411
406
450
468
445
416
431
462
432
412
419
443
472
464
432
385
382
372
350
388
408
395
376
357
361
367
387
434
471
484
484
501
497
470
470
475
481
465
441
415
427
488
540
500
433
386
391
451
450
414
417
474
522
550
537
511
517
506
491
498
493
489
484
486
475
454
461
470
489
542
571
528
465
462
506
528
527
517
483
450
445
396
401
491
534
567
558
492
430
435
467
543
576
546
521
494
480
452
445
473
540
595
596
606
602
547
525
502
430
415
454
468
454
447
485
485
475
497
490
471
461
440
461
496
542
540
507
485
514
525
492
468
459
459
467
482
500
504
525
549
533
467
430
442
460
493
529
494
440
417
480
488
473
479
462
494
532
538
575
662
711
764
825
852
840
813
790
771
709
604
473
379
301
218
161
158
215
297
376
436
450
458
478
473
471
478
471
461
497
516
514
499
532
557
546
538
521
543
559
519
510
520
525
517
521
517
511
490
484
476
471
493
529
554
580
571
529
521
492
449
455
535
573
550
570
613
618
579
556
548
540
531
537
544
546
547
513
496
523
600
610
599
623
647
641
620
640
626
617
625
638
666
692
667
648
605
568
585
606
608
605
610
609
604
598
561
534
531
549
570
559
521
497
474
437
408
395
392
399
415
395
371
383
381
396
388
373
376
357
393
421
402
357
315
318
322
361
412
435
432
413
390
385
386
420
462
478
452
447
457
457
448
423
404
398
406
419
431
438
483
515
528
524
486
445
441
441
440
423
399
415
461
501
461
461
524
541
558
575
564
538
506
483
491
524
512
471
420
425
454
489
532
498
448
461
472
516
542
488
449
454
465
468
491
496
488
514
529
527
513
489
450
450
491
498
496
523
527
493
464
490
523
565
605
612
562
469
405
405
451
503
561
599
563
503
466
420
426
447
444
450
453
461
447
450
462
457
466
494
493
472
510
528
504
469
441
455
512
573
570
535
481
423
472
561
557
503
494
497
479
432
388
401
444
474
491
506
564
597
614
659
718
795
857
894
890
840
761
677
576
457
394
315
205
156
148
200
269
349
421
459
451
422
437
468
485
489
487
513
538
536
494
455
429
446
496
519
549
594
592
516
468
490
516
513
509
485
460
472
509
524
534
543
549
552
520
498
483
491
527
514
498
551
580
579
582
585
575
569
564
561
604
616
579
523
503
510
527
539
548
572
604
615
601
603
643
643
604
622
647
673
704
726
697
628
589
582
599
635
621
601
617
638
662
675
611
534
518
540
548
519
479
455
440
440
454
443
447
448
389
364
367
377
410
457
450
372
314
332
366
398
444
450
456
438
419
413
394
384
392
418
472
479
442
406
392
406
448
465
466
465
456
433
412
445
476
471
449
421
423
429
419
415
486
548
541
538
500
445
426
473
515
503
467
443
464
479
483
480
472
466
468
440
408
425
493
514
512
530
534
535
505
493
492
485
472
467
503
575
595
569
553
519
475
469
477
473
450
431
427
465
488
496
497
480
463
457
473
478
465
459
465
462
436
418
444
494
565
622
602
595
575
529
521
531
519
535
521
472
415
398
401
428
477
518
520
493
460
434
425
453
498
516
513
503
473
460
482
508
541
569
573
549
522
500
512
525
513
493
438
423
448
502
551
552
529
552
562
522
485
511
600
665
740
821
853
877
909
863
753
655
565
472
354
243
194
179
182
221
268
325
407
476
543
575
559
544
537
490
464
476
510
524
511
530
535
532
513
506
520
523
517
498
506
514
533
531
544
551
565
571
586
581
554
512
525
542
585
591
547
519
485
470
484
504
498
489
516
564
571
542
558
584
594
587
573
564
550
584
616
625
597
584
593
603
601
572
600
638
649
650
654
615
587
575
603
632
676
683
662
653
651
647
657
665
687
685
634
555
509
508
515
507
507
524
506
477
465
435
428
425
419
409
392
353
336
344
376
413
434
441
425
421
451
455
419
396
388
372
374
399
397
360
351
409
485
497
461
428
462
472
466
463
450
428
433
460
464
443
434
434
449
458
481
481
471
483
473
448
432
435
453
491
524
548
549
531
507
466
456
447
445
491
540
512
484
465
437
426
448
486
525
533
508
506
520
521
521
528
528
521
518
477
444
494
567
583
570
527
460
438
458
457
461
460
482
488
471
467
475
467
498
539
553
559
565
550
558
536
507
477
459
463
487
499
479
458
463
484
506
484
432
420
452
479
472
451
461
508
517
533
555
555
508
492
487
499
483
481
514
532
520
491
487
506
505
490
479
477
483
510
543
568
583
617
693
755
781
784
822
835
807
697
577
482
376
271
185
190
261
351
416
447
443
435
454
488
498
509
521
552
562
537
484
450
459
504
548
585
620
628
603
537
478
483
487
501
511
544
552
530
520
555
583
573
540
491
491
482
448
509
558
553
558
586
592
567
526
521
513
534
574
593
588
598
584
562
570
619
643
603
534
499
564
605
617
650
676
657
632
602
569
586
615
617
624
656
692
712
691
654
668
699
705
684
638
610
596
567
555
578
604
596
586
593
570
575
560
503
465
409
367
352
318
317
359
376
369
352
362
432
486
508
486
439
417
429
442
453
450
437
405
383
401
457
467
461
447
451
446
418
416
416
408
433
409
447
499
479
481
501
493
478
466
455
431
461
522
556
567
567
616
621
572
542
540
544
542
492
466
473
488
491
527
522
520
515
526
527
525
512
502
505
482
498
527
529
520
527
536
554
567
551
536
533
495
486
522
551
564
561
540
508
501
508
476
438
451
512
529
519
525
539
533
538
558
604
624
590
545
517
517
513
494
510
520
492
472
470
476
480
501
531
564
556
508
481
454
455
497
526
528
557
553
537
594
609
564
522
475
460
491
534
543
538
517
505
489
502
530
488
429
412
412
452
481
487
492
540
619
650
657
687
765
879
941
903
844
789
699
610
530
426
357
308
247
215
243
282
290
344
419
499
514
519
548
564
565
551
511
529
550
515
512
506
514
549
543
528
514
507
494
460
474
530
554
579
553
501
501
536
529
514
533
548
548
577
570
545
539
541
542
530
519
532
523
525
560
593
601
599
594
577
562
523
503
498
515
549
588
601
585
601
645
646
594
569
589
602
633
672
682
687
692
690
674
659
644
615
568
570
581
580
576
610
655
655
613
585
557
507
497
531
537
477
424
419
464
515
533
504
457
424
422
423
414
406
392
386
371
342
340
343
329
324
371
406
379
333
328
389
443
467
487
492
466
444
418
439
477
509
491
505
509
465
395
383
414
428
433
476
504
487
455
446
439
449
469
479
460
454
461
459
483
553
547
486
493
493
480
474
493
523
529
503
489
510
529
501
481
482
481
492
493
470
466
478
521
555
529
531
551
512
440
430
471
500
506
512
532
524
498
498
499
522
546
542
502
485
501
529
500
488
523
548
547
520
509
498
470
472
527
567
551
527
520
489
480
510
527
527
519
545
554
505
482
522
552
522
483
499
522
469
439
424
440
475
482
495
522
533
512
480
478
480
486
508
494
474
457
526
590
555
504
516
506
477
486
474
496
552
668
760
787
798
818
842
818
771
752
739
659
542
428
309
232
206
238
308
370
403
372
353
362
394
437
474
507
491
441
423
420
446
545
612
617
590
557
497
444
464
522
558
572
566
545
529
517
518
540
557
537
470
426
467
515
564
570
545
540
548
555
539
522
479
473
498
541
574
601
605
559
548
549
520
480
471
503
553
576
580
600
612
605
582
592
615
618
651
669
646
631
620
630
658
667
659
646
637
615
607
608
616
636
652
665
644
595
581
587
550
460
413
455
479
490
525
530
490
444
429
435
467
499
503
479
397
351
338
326
308
323
360
381
407
430
429
427
419
410
424
409
373
344
360
410
438
470
487
481
471
470
469
463
443
437
463
437
402
415
443
459
458
445
462
482
494
499
487
477
479
496
495
512
503
461
449
476
506
538
552
553
521
464
432
433
434
459
467
479
486
480
478
517
534
509
494
479
483
506
520
515
505
524
524
502
512
533
502
467
494
501
509
512
490
482
500
534
536
527
505
501
508
496
497
512
498
482
495
534
538
521
518
555
593
598
588
583
559
499
472
445
423
397
418
470
488
470
450
486
532
532
514
493
466
453
468
507
557
579
565
531
498
491
488
478
473
498
491
485
495
529
519
479
462
469
477
476
498
503
471
483
542
591
618
688
788
846
863
858
850
815
798
746
594
459
363
283
243
249
264
292
311
298
300
351
397
420
432
463
497
538
587
565
527
514
532
561
566
560
556
516
521
570
578
526
499
499
491
498
517
519
535
546
536
529
514
503
497
491
495
505
508
529
543
565
558
547
523
540
571
574
570
552
533
560
554
546
550
558
537
553
577
583
574
565
574
580
582
607
614
619
636
646
622
602
599
640
678
678
652
636
662
649
626
611
625
647
638
627
608
566
527
502
518
512
469
425
423
452
481
463
438
418
421
392
364
356
354
380
402
415
395
373
348
384
456
464
417
388
391
376
359
393
413
418
421
430
439
439
413
428
441
423
420
431
440
462
487
502
486
466
415
402
427
455
479
460
452
466
448
431
428
437
435
427
442
451
477
518
551
537
506
488
462
443
421
439
487
550
562
531
455
438
492
536
530
505
496
526
535
496
487
480
471
433
404
410
443
463
483
528
539
518
499
520
566
563
524
543
568
539
464
422
471
496
509
508
515
553
610
632
569
506
500
496
472
484
514
525
525
518
494
461
446
459
496
524
507
481
498
528
548
537
505
486
478
483
491
471
453
428
422
486
526
534
584
639
619
556
526
509
477
480
520
527
513
506
479
474
532
607
672
691
747
828
837
805
808
783
748
680
572
453
336
267
285
308
310
315
303
326
365
374
401
461
507
505
515
541
595
621
551
523
552
575
575
553
543
548
545
533
543
557
534
519
507
515
563
602
559
493
475
476
482
509
564
588
539
531
550
571
596
583
528
481
529
559
569
610
608
590
594
613
604
558
571
590
603
608
589
532
521
594
659
672
629
561
553
590
602
601
651
705
723
699
664
665
675
663
634
633
634
623
622
662
662
647
629
616
552
510
501
534
498
458
462
461
465
468
443
416
398
420
464
472
428
396
402
376
340
345
353
364
366
362
381
442
485
451
369
336
378
464
472
448
436
416
414
397
400
423
455
498
504
474
437
423
427
446
452
448
473
500
513
522
531
498
453
420
362
330
384
457
513
540
572
567
545
544
516
472
439
472
505
492
486
478
486
475
456
488
506
531
529
490
453
436
440
476
516
530
515
530
529
487
469
456
480
500
512
522
561
541
514
547
574
539
493
479
482
508
526
560
597
568
497
477
505
497
482
493
484
460
479
503
537
535
489
473
462
482
519
526
520
517
502
470
447
479
519
541
528
464
456
512
538
539
529
502
482
454
426
439
443
442
483
564
579
522
453
427
481
535
562
577
603
626
640
681
743
777
810
834
831
865
822
712
560
414
323
248
199
197
193
246
300
369
411
422
412
443
489
514
526
524
525
536
538
552
548
533
538
571
573
531
487
503
526
518
518
546
589
587
548
486
474
515
530
500
513
503
476
506
543
576
571
534
521
508
510
533
541
543
571
580
557
556
602
604
589
594
633
647
604
566
592
587
552
564
603
631
628
592
594
593
603
634
624
604
575
577
614
636
655
674
682
666
669
660
646
602
577
577
599
599
595
614
622
614
574
479
408
387
419
419
368
344
364
396
427
428
446
445
374
327
341
382
402
417
432
453
469
451
426
416
426
430
438
444
428
450
469
454
467
463
437
399
394
411
436
427
419
451
476
456
460
473
461
436
412
429
455
479
526
563
559
565
567
554
530
506
491
506
457
383
371
389
442
478
489
505
485
503
537
530
502
470
446
418
419
439
461
480
495
504
510
521
547
541
541
535
555
585
553
503
469
435
418
432
482
533
596
597
555
519
509
502
443
417
438
491
545
543
525
509
486
499
532
529
523
523
524
529
493
451
457
466
448
477
502
475
483
533
521
473
448
430
453
496
538
520
531
536
517
534
524
489
485
499
506
490
492
486
517
526
522
499
489
440
406
436
502
578
606
618
616
650
730
802
830
823
766
732
708
680
577
451
370
310
266
255
274
310
340
380
415
471
507
508
455
464
524
525
506
486
485
484
475
477
473
459
492
535
553
536
506
482
490
502
537
562
551
544
537
530
541
570
572
560
555
549
549
569
588
555
503
479
494
520
505
512
514
510
486
477
495
538
591
624
616
580
563
574
585
581
565
557
598
632
616
576
577
618
618
603
630
643
639
653
684
684
664
646
653
618
608
630
622
594
610
614
588
546
529
524
480
424
413
461
470
454
452
457
446
412
401
412
408
407
383
366
376
379
389
398
399
412
384
371
407
395
378
396
407
415
373
356
370
376
405
419
411
420
445
442
441
430
425
451
487
483
460
478
487
500
508
497
496
477
410
397
394
412
446
491
503
507
497
484
477
447
481
512
491
432
413
449
483
477
495
547
583
572
532
489
480
444
421
428
440
466
527
565
561
542
503
468
478
510
550
522
479
453
458
486
506
518
537
544
513
483
499
536
556
525
488
493
516
523
534
543
534
509
513
511
490
481
500
547
577
560
531
496
490
478
492
524
524
542
505
423
441
496
518
512
532
538
526
493
458
436
465
497
534
552
573
573
547
534
529
522
519
518
533
517
504
505
465
475
530
542
552
595
609
609
665
734
802
847
858
866
827
770
725
644
534
456
400
333
269
277
298
313
357
385
359
365
424
473
484
478
503
516
549
546
545
580
623
633
641
602
526
499
495
526
555
516
461
473
507
531
541
567
590
596
598
587
562
525
503
513
566
598
589
558
565
542
538
534
500
555
621
607
577
592
589
596
597
592
608
631
646
637
635
627
628
641
623
601
603
636
681
694
683
652
662
673
646
647
683
686
657
623
618
631
651
653
644
651
682
705
672
606
584
595
584
564
583
553
516
500
493
477
442
416
409
425
410
407
413
431
422
379
355
376
414
428
446
458
451
460
447
460
487
527
564
517
450
439
469
491
480
483
490
481
494
489
487
500
496
467
452
447
423
436
469
495
501
523
531
525
531
513
510
487
493
519
549
561
578
555
532
557
609
633
609
583
572
560
549
565
554
478
416
422
472
481
481
476
503
549
561
555
564
560
562
566
575
587
602
586
554
533
506
498
516
537
560
564
546
543
593
639
615
539
490
466
458
485
558
637
680
647
574
538
545
539
503
489
517
561
572
560
561
539
556
589
560
523
492
449
437
480
564
601
599
591
587
583
554
498
455
472
531
551
530
517
518
518
525
551
544
512
537
556
536
516
526
565
594
591
562
547
561
607
668
732
779
835
898
916
888
848
804
751
637
529
441
347
240
197
238
277
299
344
410
480
540
559
555
541
515
515
557
589
599
565
542
544
507
484
489
516
542
527
477
498
562
605
615
597
575
553
531
546
541
517
503
532
577
606
614
589
564
546
533
513
492
529
585
604
605
623
637
591
548
543
533
531
521
539
574
563
544
581
646
667
605
599
631
625
645
670
661
620
589
594
636
669
675
671
670
691
700
695
676
669
684
636
569
550
536
542
543
552
588
612
590
508
407
421
459
441
407
401
400
405
366
336
350
373
384
378
379
397
408
390
384
386
384
401
381
379
382
400
391
365
347
356
402
461
491
502
491
428
377
380
428
462
477
454
430
451
460
472
479
468
462
442
411
408
421
425
422
434
463
474
458
466
470
475
452
442
497
537
553
508
434
386
357
371
413
415
400
449
515
562
568
536
491
463
473
463
474
467
454
459
449
450
476
503
510
493
468
469
497
480
445
400
374
396
413
383
391
423
476
501
487
488
507
528
535
552
506
458
456
464
458
472
496
481
466
488
518
500
461
473
481
454
418
398
434
483
494
478
464
455
465
479
490
471
451
455
459
448
436
442
420
406
412
426
470
492
477
496
507
460
438
424
425
425
429
486
543
532
477
423
414
425
441
409
414
433
454
504
572
620
647
697
743
740
755
806
766
671
612
552
462
366
277
214
173
204
247
260
281
313
346
387
423
433
405
401
454
487
500
476
452
430
448
468
458
472
502
508
499
507
540
544
491
446
430
412
446
501
515
515
519
487
447
449
470
503
535
529
463
426
407
415
440
474
518
534
546
526
507
498
532
567
565
553
472
420
460
518
520
516
513
510
549
588
600
618
608
600
601
598
568
562
560
573
591
592
600
587
597
598
598
629
620
616
608
556
496
448
446
450
449
449
446
440
422
412
411
413
394
355
319
317
336
344
361
359
347
379
391
358
326
340
352
333
358
384
400
399
396
387
351
330
299
306
338
412
469
467
433
415
389
359
373
412
448
466
437
388
383
393
417
429
432
445
470
469
471
438
440
477
478
451
432
444
449
431
456
486
483
465
482
508
494
438
397
398
423
435
430
442
460
478
508
536
535
522
480
474
463
443
408
389
423
491
533
535
540
496
450
440
484
538
559
508
457
422
407
443
494
533
534
498
448
461
498
537
591
572
539
531
482
432
440
445
449
430
419
459
494
513
513
494
493
514
506
470
447
452
456
485
506
501
485
484
489
467
471
466
457
505
532
535
512
505
479
455
438
415
407
418
454
490
500
486
519
600
638
653
682
740
802
873
904
839
739
653
582
487
377
279
216
192
188
227
292
360
395
409
433
441
446
462
487
486
465
449
481
518
532
554
563
563
550
518
485
462
475
542
551
509
486
483
526
530
506
510
527
535
537
526
537
558
573
550
509
501
504
469
461
486
524
539
531
560
590
585
549
520
492
469
518
577
631
647
618
553
504
516
559
593
562
537
543
565
603
628
649
664
659
655
646
657
633
602
629
655
667
656
657
658
615
571
543
510
483
451
467
489
470
464
498
537
497
392
340
308
319
382
434
441
475
491
498
487
421
357
362
383
368
326
308
318
357
384
414
432
410
384
368
392
429
416
409
401
401
446
465
433
426
465
498
486
461
456
441
443
443
475
500
487
446
427
419
440
471
484
505
510
521
523
502
486
492
494
489
495
490
478
499
506
484
468
475
505
504
464
442
436
444
467
512
518
477
489
510
510
517
539
514
489
501
508
490
473
469
463
447
454
467
455
434
425
446
490
546
602
617
590
535
494
495
509
498
502
496
531
551
516
459
460
495
501
489
504
505
497
480
502
502
514
560
551
496
475
470
474
522
571
578
580
573
569
527
488
470
458
484
493
488
501
532
558
512
470
458
483
510
498
479
475
485
491
497
492
505
531
495
464
490
471
484
517
511
508
527
568
555
538
492
460
493
571
612
648
678
740
800
820
800
779
752
713
647
571
496
429
341
266
238
239
267
333
422
476
486
429
389
427
471
514
502
494
536
576
557
508
504
543
559
568
597
557
536
530
515
533
530
513
504
509
488
518
559
562
557
556
585
603
606
585
550
529
519
516
495
518
562
572
572
604
608
578
596
627
635
609
598
590
577
570
574
589
614
604
598
625
652
664
695
707
665
622
564
567
613
645
657
659
664
660
669
674
618
589
615
621
613
643
692
658
589
543
538
583
616
581
545
542
506
478
452
433
413
376
379
430
452
427
377
363
383
375
359
320
343
373
403
429
427
407
424
466
540
469
339
303
337
374
406
405
388
411
454
441
403
375
337
331
382
423
425
394
354
357
396
410
416
458
512
522
473
418
387
410
393
342
366
386
370
355
392
432
430
414
399
405
391
363
348
372
438
478
499
522
524
489
485
488
478
489
498
524
534
552
576
562
552
540
494
440
442
505
575
600
588
572
559
519
487
511
558
576
587
575
551
551
608
679
660
630
650
688
663
584
540
550
566
617
669
682
632
616
594
577
605
641
678
711
738
772
794
768
715
682
659
656
697
740
717
707
714
726
692
647
627
671
694
684
679
645
613
636
675
681
697
748
738
714
734
764
807
829
812
778
746
701
641
580
500
363
274
276
298
309
328
354
380
424
462
505
530
542
553
545
535
534
542
530
509
501
485
487
509
538
587
614
631
586
539
530
497
481
472
462
485
525
572
585
558
529
531
586
625
608
582
568
566
563
563
567
573
570
567
589
562
530
522
561
610
614
604
641
681
698
662
630
609
634
646
642
642
644
670
682
654
627
653
702
707
683
660
651
646
639
655
636
599
573
547
568
608
631
616
614
594
560
554
512
439
347
303
334
362
388
422
411
384
350
361
413
456
437
396
368
346
360
369
372
400
447
444
429
430
433
395
354
325
321
384
450
488
495
471
457
413
380
380
369
372
413
476
500
499
509
509
479
451
433
445
494
519
512
487
494
524
542
539
552
579
614
609
558
511
493
481
502
516
524
527
522
508
495
520
549
550
522
504
549
568
534
501
527
556
571
608
611
599
579
553
533
553
580
595
577
546
531
529
563
587
567
557
553
559
549
550
556
529
510
523
524
514
529
513
473
493
503
505
518
559
611
584
501
489
553
589
542
500
487
511
548
569
553
526
481
490
541
561
545
508
486
488
482
454
475
493
470
485
495
505
528
587
625
591
504
442
434
468
469
451
469
483
520
611
655
662
674
694
732
764
771
743
713
668
609
545
479
411
356
281
228
263
354
416
433
438
395
426
471
517
558
567
517
476
481
547
588
559
521
540
553
536
536
570
575
546
534
538
540
535
529
536
553
549
519
491
472
469
508
547
589
594
558
526
502
493
468
463
504
573
571
497
439
409
433
509
564
564
535
528
543
590
593
566
555
575
579
563
555
546
544
552
558
525
541
570
574
580
598
606
570
526
516
554
575
580
607
575
507
458
431
432
457
493
511
533
537
476
425
417
414
388
368
356
348
362
375
365
353
345
333
306
271
272
281
256
236
195
146
108
90
89
150
216
265
260
241
232
236
246
243
246
248
261
258
272
306
350
359
353
333
310
312
308
307
313
323
351
337
335
362
337
296
299
324
346
379
395
367
336
335
313
307
324
380
423
426
424
425
439
431
412
404
396
405
416
416
429
440
425
364
391
455
474
475
471
518
576
566
532
509
481
460
419
396
424
457
445
420
450
514
543
535
522
502
459
425
412
416
415
435
519
550
550
574
593
582
585
568
559
569
541
514
449
418
444
465
500
504
487
465
460
461
480
538
563
554
518
481
483
491
521
559
567
530
511
519
556
560
530
525
534
545
544
521
493
485
486
516
524
500
481
525
612
630
629
655
702
751
774
741
672
622
541
477
417
329
244
198
203
250
290
292
298
326
390
465
503
518
526
520
525
518
485
458
441
433
456
465
443
462
507
541
541
524
499
493
523
537
523
508
485
467
452
473
491
528
526
507
479
480
505
506
500
489
498
510
477
458
486
512
512
523
531
536
539
506
490
476
473
497
551
607
608
569
537
513
539
578
555
538
573
593
606
623
655
676
634
619
625
611
631
658
660
628
564
527
533
556
552
574
588
577
564
563
538
483
473
478
453
418
419
457
477
478
456
392
369
376
395
423
448
445
444
450
416
365
367
389
384
408
427
450
470
468
448
444
445
464
467
464
507
525
509
494
497
551
558
501
466
468
500
465
425
409
407
425
463
496
512
549
604
615
577
478
417
455
509
555
588
603
595
542
481
452
445
491
516
506
524
560
584
567
533
537
514
473
484
504
512
487
467
467
510
542
521
493
509
531
528
490
467
498
552
551
516
513
503
489
517
518
455
462
515
552
569
586
592
597
606
596
586
539
534
546
554
548
541
519
488
493
517
536
564
573
525
484
477
488
514
533
524
507
508
551
559
522
495
500
495
486
498
537
571
567
571
574
548
522
527
551
573
541
521
528
552
543
559
593
578
573
645
743
802
792
781
778
773
758
719
635
540
433
332
273
271
307
318
342
396
446
501
535
538
523
528
546
558
545
521
487
477
488
498
522
562
591
606
611
615
609
581
564
552
552
539
544
588
594
583
584
572
596
603
562
519
487
465
476
477
505
575
657
676
599
545
532
520
529
575
622
648
645
631
607
580
582
573
569
589
647
691
678
609
577
604
621
605
588
595
649
706
696
672
654
590
577
599
620
680
673
646
622
591
591
608
618
627
601
593
645
689
674
637
545
467
444
444
439
432
436
457
447
431
419
440
472
507
536
565
573
522
468
474
479
478
493
496
493
470
464
502
536
497
466
488
517
519
543
564
544
537
566
579
540
536
555
575
562
547
564
597
604
596
590
563
510
522
587
601
586
564
554
522
467
456
503
535
501
506
543
587
587
568
570
570
572
587
595
579
547
519
513
520
537
526
527
500
500
502
490
480
466
492
525
569
595
609
596
551
498
489
506
495
464
439
427
434
453
476
471
486
529
538
504
475
484
477
443
451
491
530
548
548
530
497
439
389
400
412
442
464
476
468
442
449
445
454
461
448
454
465
450
435
468
483
462
448
438
414
428
443
479
503
496
479
475
467
438
416
457
504
522
487
450
438
486
574
665
694
688
664
689
710
716
708
679
640
587
470
339
234
200
175
149
183
265
331
364
398
416
453
493
528
556
591
622
610
550
533
534
522
476
462
452
390
335
373
440
475
467
452
429
446
469
473
457
481
537
557
552
516
461
447
472
509
543
537
541
572
581
546
487
471
499
515
527
551
535
517
501
518
539
533
538
516
508
569
638
612
555
518
553
614
633
657
679
702
735
720
718
726
681
611
585
601
614
627
631
636
647
663
675
688
684
640
578
521
508
517
530
537
510
469
461
453
432
449
456
467
466
454
432
419
447
468
464
417
423
434
471
511
478
430
407
381
392
446
461
442
380
348
381
418
430
449
491
537
546
501
451
417
384
366
356
384
456
517
506
468
469
508
571
572
533
498
498
443
411
425
472
514
512
488
486
505
492
468
470
481
473
484
502
513
529
533
531
504
473
462
463
421
412
460
523
546
576
585
544
518
501
446
450
487
512
530
521
506
506
534
525
527
543
576
580
558
527
538
579
603
627
654
658
674
702
677
622
589
599
637
635
623
635
638
606
591
641
679
661
639
607
606
635
639
565
535
602
618
571
527
526
545
540
557
596
601
594
573
567
567
566
589
597
589
585
587
581
549
511
523
560
608
675
679
700
776
814
823
836
815
781
743
692
631
545
426
305
250
261
275
288
316
354
361
381
437
482
505
528
573
593
558
581
613
624
647
641
621
611
600
601
617
611
580
575
597
666
656
551
508
482
487
581
658
628
579
554
557
567
581
615
652
645
597
548
535
534
545
560
578
593
595
585
584
577
584
583
551
524
524
542
547
549
583
589
581
559
530
542
570
597
622
609
586
603
618
640
658
663
677
631
601
627
655
673
627
577
566
547
534
559
554
474
419
413
412
406
376
374
409
428
454
432
398
395
405
422
435
430
435
447
453
432
386
362
375
393
425
440
442
453
439
400
399
423
427
407
399
434
450
483
474
439
463
494
511
466
406
382
375
350
371
394
398
416
426
460
472
464
448
445
453
476
501
508
503
508
533
531
505
477
473
502
564
557
492
448
434
431
413
410
437
457
473
459
449
446
462
487
493
494
481
464
459
457
479
489
509
494
444
442
471
454
426
428
412
417
446
439
455
500
531
523
489
476
498
557
564
536
489
451
425
446
463
491
534
558
524
485
450
426
436
476
500
517
544
543
513
493
511
529
565
567
506
458
461
494
540
555
565
580
593
583
579
567
528
474
453
468
525
606
644
685
718
735
786
821
826
828
818
774
736
646
577
525
441
313
258
295
333
363
368
346
370
435
509
514
528
580
640
646
613
555
531
494
467
522
582
624
624
596
597
608
621
627
620
567
556
574
558
508
471
482
525
503
457
483
548
547
469
414
402
419
425
448
495
493
493
529
524
487
485
493
475
449
451
492
495
442
448
501
533
547
553
491
471
496
507
525
550
536
495
501
541
543
546
569
587
591
619
624
600
592
589
596
580
573
585
588
587
589
562
531
540
547
502
480
497
456
393
408
460
497
501
512
541
490
456
442
394
405
410
415
434
462
461
435
415
441
484
483
480
477
484
499
491
479
461
433
421
427
450
482
514
494
475
523
560
560
561
539
482
454
466
469
479
502
494
473
487
527
554
561
525
481
479
489
503
527
557
585
575
539
520
505
531
588
590
547
520
517
537
540
538
532
523
513
509
538
582
616
613
584
574
578
568
535
519
543
529
535
538
531
505
548
619
644
631
608
622
645
600
537
506
498
526
493
512
536
533
571
605
608
597
591
578
543
521
529
543
559
578
578
571
586
591
568
551
564
607
679
709
594
494
479
488
522
516
475
461
481
518
568
586
585
555
532
528
594
649
667
673
686
727
781
818
812
818
799
790
776
689
582
482
383
261
202
218
247
263
291
329
352
392
485
552
542
515
511
526
574
623
601
545
524
537
552
587
605
574
519
503
515
530
528
515
523
513
493
477
520
558
602
608
541
500
517
595
668
632
585
544
520
538
548
543
573
575
564
551
525
527
537
561
575
578
565
557
543
527
501
530
556
582
613
613
604
596
603
624
651
637
606
609
624
662
683
678
690
694
671
631
614
623
624
600
576
582
570
527
518
522
511
508
495
450
410
415
416
433
432
410
416
454
453
457
464
431
384
374
374
338
340
403
450
451
450
453
454
447
446
449
445
410
382
386
405
403
425
459
460
443
445
460
470
456
445
442
463
452
450
496
539
534
513
491
480
489
469
462
485
483
468
464
459
402
360
352
366
446
493
472
483
512
511
501
491
491
487
463
483
509
542
533
524
542
513
493
497
495
482
442
464
470
467
444
452
518
526
460
471
510
502
503
533
554
552
548
519
518
558
580
549
478
468
469
462
457
439
418
415
437
451
445
470
495
481
464
470
494
510
505
475
456
482
475
482
477
460
461
524
555
534
482
449
461
486
511
501
488
469
446
424
423
448
469
522
592
656
715
792
832
812
792
765
714
666
584
476
380
306
252
252
243
227
280
323
334
348
370
379
408
445
487
513
531
545
550
553
551
547
551
568
566
541
511
500
507
475
444
438
451
487
533
554
503
480
489
503
556
561
549
533
518
527
536
519
512
535
566
574
555
574
566
541
522
503
484
464
481
478
495
509
494
528
565
581
598
613
613
584
546
547
586
590
597
586
597
625
646
661
661
651
649
641
606
578
576
574
581
619
622
605
563
485
474
495
509
510
509
521
525
513
507
497
462
438
379
365
371
402
417
406
385
379
426
429
405
400
356
359
403
423
405
399
395
398
380
383
412
413
409
399
419
424
421
434
445
464
508
507
455
418
427
444
430
437
445
398
375
464
547
568
512
449
414
388
429
483
500
480
442
426
446
479
493
515
516
498
484
475
479
499
514
518
543
528
515
519
520
514
484
470
480
525
543
516
477
439
411
426
461
470
474
485
489
496
496
487
489
510
517
507
509
524
560
551
524
531
547
566
555
520
481
460
499
531
526
478
414
402
453
481
481
487
488
458
460
463
457
481
511
497
483
481
501
514
500
485
488
516
544
556
552
532
524
510
485
487
519
556
598
608
628
689
743
778
801
803
763
688
612
489
390
352
318
283
206
179
201
242
320
372
419
473
500
516
519
539
582
593
561
525
523
527
519
509
489
457
438
449
483
535
568
608
606
538
474
507
567
571
541
521
498
480
483
508
540
520
541
574
550
524
515
542
603
618
517
450
491
544
565
565
564
579
571
588
600
594
556
531
576
601
592
618
625
613
611
601
606
632
672
672
654
653
630
642
662
672
675
666
666
690
683
632
580
541
534
545
562
560
578
604
560
494
448
455
496
505
471
434
422
422
416
406
416
453
468
429
381
362
365
375
393
428
424
447
466
398
362
369
400
403
429
451
434
372
332
355
448
474
425
384
350
376
453
499
496
497
506
521
502
478
492
518
551
573
574
548
496
446
423
407
410
439
447
430
451
486
480
476
481
469
496
536
539
514
521
499
448
455
516
529
468
439
449
473
516
530
507
468
461
489
524
524
532
523
502
475
490
527
530
495
484
515
527
507
478
487
517
529
528
526
512
471
455
458
460
479
464
463
488
488
482
466
444
441
464
474
472
489
507
523
524
524
504
479
515
555
550
533
523
502
456
435
455
477
486
483
478
468
489
560
622
615
598
624
670
727
787
819
796
763
701
616
532
449
367
300
236
205
219
270
316
356
433
459
463
485
514
530
538
541
543
541
555
566
551
521
493
501
511
499
512
529
554
581
603
625
586
533
488
478
508
537
567
600
578
512
505
543
566
562
562
579
568
565
566
570
592
588
585
557
515
495
509
563
609
644
653
658
639
604
583
592
615
638
654
652
620
611
619
616
613
617
634
656
670
660
654
670
676
652
635
603
569
568
620
660
641
643
618
584
546
487
483
531
529
531
532
505
507
535
515
511
474
400
326
308
357
381
379
374
400
412
388
386
404
407
439
472
480
460
471
475
469
492
497
489
486
502
486
406
381
470
496
476
488
539
581
563
509
473
476
480
454
400
390
388
422
487
537
534
530
530
537
583
564
489
456
455
480
504
500
486
503
513
503
515
530
528
579
610
567
500
461
426
410
434
496
550
544
498
498
516
516
494
490
510
522
522
561
564
553
527
504
528
558
565
564
576
562
526
476
435
456
493
499
518
517
454
393
365
367
401
440
488
520
499
477
515
549
550
547
554
514
477
457
457
534
568
546
525
503
482
495
475
413
426
486
545
530
511
525
531
550
625
679
679
672
717
784
830
800
758
704
631
544
458
390
338
312
268
229
241
283
296
335
372
378
390
393
367
397
403
388
380
396
421
415
398
392
402
408
388
356
343
323
330
334
357
363
339
341
363
391
411
430
412
386
376
369
451
515
458
363
321
298
268
270
342
433
451
450
446
452
463
482
507
538
566
574
499
436
422
418
460
544
577
525
490
495
462
434
506
533
556
597
631
673
725
758
750
711
647
579
582
603
595
604
676
719
727
725
696
646
610
645
627
529
483
478
514
518
480
465
478
510
522
491
464
462
473
483
473
452
440
437
451
477
493
493
468
454
474
478
462
486
484
446
450
492
535
523
487
472
454
432
440
478
489
509
536
539
507
488
485
485
467
453
435
422
413
416
455
514
519
504
476
421
419
461
540
559
482
368
311
309
337
352
355
373
414
454
443
406
399
375
329
324
335
399
467
486
492
479
476
483
512
530
507
483
485
536
576
581
570
574
579
588
610
632
592
521
478
484
482
478
495
483
473
454
450
451
448
476
507
531
561
550
499
479
502
523
526
521
503
479
498
505
538
569
545
503
466
422
398
392
428
458
456
435
446
499
566
583
565
611
708
780
807
806
771
723
703
678
608
486
351
257
161
140
166
222
291
348
397
415
410
397
355
339
368
451
514
510
479
476
474
488
489
478
491
502
505
492
483
466
448
466
514
542
539
559
582
584
580
584
579
535
497
480
513
570
580
589
577
554
561
571
566
565
555
569
599
600
580
547
555
577
575
601
618
618
646
689
696
694
702
691
661
648
691
712
639
594
599
628
645
660
674
667
686
702
717
731
690
645
637
625
589
587
619
637
619
601
599
596
534
477
452
471
509
505
449
398
376
363
357
362
367
318
302
310
356
400
405
379
357
314
288
311
374
440
459
421
411
433
456
430
405
441
464
433
401
389
430
472
507
497
472
460
449
428
444
461
483
491
494
444
408
389
412
455
434
432
445
474
492
494
493
516
512
455
423
442
474
483
473
472
441
443
498
567
584
519
458
464
488
466
437
481
528
522
477
456
462
495
506
539
552
528
513
500
506
504
497
490
474
460
431
434
443
448
444
447
475
493
517
527
496
447
407
445
502
506
456
435
462
463
481
499
453
408
418
431
435
436
432
440
460
477
527
551
543
503
461
442
479
499
517
509
516
563
621
651
691
753
816
858
856
831
803
751
655
508
389
304
245
211
196
192
235
286
320
376
414
447
483
512
527
519
482
454
499
576
595
611
610
570
520
482
472
498
547
583
591
592
558
517
486
482
468
487
510
525
505
509
557
563
580
638
617
591
586
579
524
495
506
530
512
478
477
556
628
659
660
658
664
637
593
556
525
484
497
553
601
659
691
682
638
603
620
649
674
691
692
679
659
652
679
677
636
624
606
610
596
585
584
554
512
517
537
557
573
544
509
465
450
457
448
429
410
471
511
480
421
375
387
394
353
330
334
359
403
414
412
425
405
402
410
409
396
385
408
463
519
544
512
532
551
544
567
575
559
527
490
477
473
479
485
492
492
506
549
596
611
582
604
667
703
688
671
647
648
678
667
676
709
722
726
768
810
796
743
718
737
773
744
689
651
648
659
609
580
584
612
627
612
597
592
581
606
626
602
605
632
650
650
640
595
554
551
540
501
511
530
484
524
585
559
551
564
569
552
512
484
459
420
415
436
427
392
383
405
431
440
433
430
411
387
388
391
384
383
406
421
415
429
448
457
500
551
551
519
479
452
433
466
465
455
481
504
515
574
643
698
742
780
814
830
803
688
558
455
360
258
176
116
81
112
188
278
351
409
429
408
409
442
468
494
593
613
563
498
479
451
443
466
498
507
518
514
435
365
368
402
451
506
521
553
580
581
551
504
487
487
481
476
490
528
560
583
562
524
514
509
519
510
489
471
443
446
486
558
608
633
610
584
576
560
544
559
573
562
526
482
485
505
521
545
610
665
664
651
670
667
641
607
558
565
626
631
623
625
658
647
579
520
483
448
447
494
533
519
519
493
483
473
421
413
437
433
413
385
375
371
373
364
299
286
319
359
401
425
431
421
389
404
452
475
441
393
359
312
307
371
438
470
430
396
396
380
398
379
378
399
425
453
503
521
484
380
309
320
374
439
463
461
435
418
419
437
458
472
476
484
488
447
455
470
501
501
463
436
438
450
441
433
442
437
460
465
417
368
378
434
458
496
538
490
393
391
461
525
532
505
499
502
500
503
511
512
519
509
451
419
417
420
420
429
407
383
392
403
413
421
422
457
520
551
510
465
423
384
408
459
525
579
591
541
480
448
452
471
479
466
451
471
470
491
527
510
474
470
487
513
527
549
609
703
739
719
706
686
693
724
698
661
633
548
411
271
158
149
220
210
175
196
273
379
475
508
531
558
589
585
579
536
491
476
516
565
568
542
526
495
490
525
558
524
465
483
514
531
579
615
616
586
559
548
552
580
562
553
591
621
616
560
479
470
500
495
459
460
522
572
593
521
487
504
538
539
572
588
541
547
611
645
644
626
618
599
586
596
600
610
605
613
612
646
648
631
619
588
594
579
581
611
625
632
639
662
663
646
609
570
517
490
494
495
505
515
493
485
491
480
453
423
378
349
376
414
438
423
449
480
447
406
386
395
468
527
519
482
481
519
512
476
434
399
374
401
446
485
495
463
437
426
433
450
480
521
530
533
541
518
514
560
623
623
568
502
442
418
435
434
458
488
523
557
591
581
544
541
547
545
538
502
480
493
499
499
520
529
526
502
486
520
553
557
520
480
444
433
472
490
527
557
567
554
567
582
565
546
519
566
628
593
558
548
517
468
463
490
510
523
547
535
483
475
476
480
512
536
522
496
507
533
557
569
548
558
551
527
482
449
433
460
467
453
446
462
531
552
500
478
447
431
436
452
492
547
595
630
688
792
847
810
786
785
754
730
641
541
431
340
276
271
262
245
301
374
433
474
499
531
570
617
604
607
620
594
575
589
576
541
535
547
540
538
523
509
522
492
479
505
548
571
566
596
619
593
561
601
632
598
568
601
643
681
650
567
497
516
539
546
562
552
556
553
550
549
587
612
584
581
611
607
608
612
599
579
645
708
700
684
675
642
614
603
635
647
616
607
624
648
657
655
654
687
702
693
710
703
658
618
591
589
603
648
660
649
602
521
462
467
496
503
494
472
476
482
453
420
424
458
492
506
502
437
392
392
423
421
399
406
417
434
473
482
486
530
538
488
456
466
477
477
478
480
465
465
459
459
468
470
460
423
423
446
450
423
425
501
539
514
473
455
471
491
494
513
541
537
538
522
500
486
482
456
418
429
469
507
523
521
539
553
532
534
500
489
467
460
453
438
460
507
514
528
553
546
520
530
538
532
498
489
470
488
528
547
542
527
523
502
495
522
509
447
405
419
455
457
496
517
493
452
426
430
455
484
505
553
563
521
464
439
464
479
480
480
523
558
546
539
516
473
483
497
478
460
449
453
487
500
515
591
639
652
696
778
834
845
833
808
776
720
650
525
386
252
154
131
182
272
324
317
313
347
399
462
521
562
554
512
493
512
502
503
502
499
515
530
497
466
468
449
459
511
561
578
550
535
575
590
575
548
498
417
433
502
524
497
508
537
554
569
530
514
509
475
452
444
474
517
545
545
524
532
573
629
664
650
571
509
502
526
541
566
600
659
722
737
698
642
616
633
675
677
647
598
614
671
663
655
666
658
617
591
582
573
582
583
586
595
601
574
538
498
455
417
394
383
368
383
390
435
447
444
433
441
443
401
388
429
450
429
386
387
410
396
397
392
399
426
440
454
445
396
354
313
302
352
399
408
402
421
435
442
456
442
418
399
392
424
454
460
455
456
475
485
482
482
489
457
424
423
442
431
416
396
399
414
412
432
433
378
420
517
549
506
446
429
425
388
352
367
445
499
489
485
472
440
439
469
480
488
499
512
500
497
481
450
429
418
436
440
472
504
519
513
496
483
481
491
463
445
438
431
421
411
421
400
409
429
433
453
485
535
547
557
519
445
399
409
452
461
478
440
413
410
446
470
515
577
567
531
526
482
411
401
446
511
554
595
678
755
818
833
778
744
775
806
780
707
597
454
354
277
210
158
147
189
284
372
400
427
465
491
516
526
509
496
527
570
568
517
485
492
511
560
592
598
578
549
538
507
475
478
538
562
547
543
569
560
531
509
505
522
543
552
538
522
494
486
499
533
576
590
572
544
559
569
559
550
545
558
562
574
603
643
676
619
572
603
579
525
522
555
583
604
623
636
660
667
670
653
610
619
651
667
665
651
642
657
690
714
681
622
574
573
567
580
544
534
549
558
537
522
518
491
416
337
278
274
325
345
341
378
437
487
492
474
454
453
445
438
445
418
366
333
377
404
419
418
425
416
402
390
400
406
353
340
374
407
432
459
491
506
497
492
486
477
474
457
462
488
486
456
452
497
523
507
497
534
514
426
385
419
470
487
481
482
481
499
519
545
548
535
495
438
436
469
493
504
474
449
481
524
546
523
516
550
566
559
532
508
490
449
440
466
540
529
464
447
457
457
471
531
603
596
595
609
616
581
515
465
422
435
442
459
498
478
469
472
490
511
506
501
517
506
441
425
458
510
514
474
416
376
374
434
502
547
554
540
530
554
567
546
506
489
513
539
547
529
550
619
700
753
815
888
873
857
825
747
693
681
615
498
355
212
122
108
149
203
280
345
352
376
418
449
480
512
555
562
554
563
614
638
609
582
550
496
471
493
518
504
466
468
521
573
607
585
540
549
587
595
610
585
541
496
447
431
438
446
472
535
608
648
647
635
630
603
562
541
540
547
552
561
575
596
587
570
590
618
670
703
738
682
582
524
536
547
554
589
591
586
598
641
702
731
733
699
667
653
647
620
614
627
650
662
649
642
626
588
582
580
583
548
526
545
503
435
445
445
414
419
428
427
434
419
399
395
383
394
396
384
410
453
433
424
429
423
442
466
460
420
384
374
393
436
478
490
524
496
455
424
414
417
418
436
421
399
400
406
406
423
509
611
626
579
563
534
472
444
469
526
525
504
494
500
502
492
479
499
544
573
519
459
429
398
401
454
498
493
483
510
528
512
494
478
504
533
551
570
589
601
571
525
493
486
497
512
529
542
531
500
518
559
579
532
517
552
554
544
575
559
516
480
445
430
438
443
457
488
511
515
497
514
516
501
513
532
523
509
524
580
577
570
566
531
495
461
463
481
494
505
512
537
539
508
490
492
456
418
440
492
563
632
694
713
754
820
872
868
817
770
766
762
705
576
454
341
232
173
176
215
264
323
405
466
488
479
490
542
527
485
502
564
573
549
556
578
581
552
552
547
552
553
554
548
516
504
530
558
554
543
560
589
598
617
620
573
525
517
537
544
557
591
611
591
616
626
601
559
559
581
573
592
594
566
558
555
526
554
589
584
555
585
645
687
713
687
641
604
542
520
587
618
621
662
715
739
742
724
693
646
640
655
657
628
648
679
650
590
555
574
584
567
535
499
483
487
496
467
450
410
389
444
481
485
498
481
420
359
355
343
349
409
448
441
396
358
345
345
381
422
440
446
456
452
424
412
431
458
466
421
393
396
434
471
506
524
497
495
506
465
454
476
490
486
440
434
500
516
447
414
445
513
542
484
426
433
445
447
477
535
557
537
501
460
448
447
458
496
538
558
568
565
576
550
514
514
526
515
487
487
477
471
473
476
439
441
472
460
444
458
498
531
600
638
604
584
577
550
509
490
495
524
574
571
519
465
451
492
493
495
502
463
412
401
430
447
442
437
452
443
427
480
543
550
483
454
485
480
467
496
536
551
507
483
482
492
538
579
545
510
514
550
608
668
700
733
772
768
745
758
779
759
754
712
594
435
284
187
115
96
148
246
293
320
382
442
471
520
578
590
580
542
538
540
538
537
553
550
522
495
505
515
537
574
589
546
465
452
436
431
404
429
496
579
664
690
622
566
547
537
523
514
507
522
552
571
567
576
607
596
590
576
550
549
590
624
617
595
546
497
503
521
545
559
544
578
610
619
625
656
716
733
706
666
629
611
599
616
645
714
789
796
736
662
599
601
617
588
545
537
543
534
550
541
495
478
509
526
491
473
492
516
485
453
447
416
378
357
352
363
374
364
369
391
376
393
431
442
425
389
321
254
255
305
354
374
414
439
447
427
445
488
485
430
400
411
419
397
398
432
465
459
447
454
477
448
426
389
359
376
422
459
476
455
431
437
467
481
485
469
461
461
458
486
489
499
521
526
527
516
498
499
476
448
482
488
470
468
456
437
433
450
483
533
587
549
490
454
403
373
401
460
525
554
552
552
583
584
566
598
589
548
513
487
449
445
467
505
478
422
437
452
454
456
425
396
421
443
450
440
422
461
477
463
484
509
506
488
486
499
496
498
490
497
527
525
510
490
469
469
498
529
551
566
549
545
573
638
684
722
751
813
831
822
779
660
492
345
236
156
138
152
183
201
233
326
423
493
524
519
496
469
422
402
433
422
409
449
518
589
611
603
603
616
602
601
586
538
480
423
423
455
494
537
567
565
567
576
564
503
459
454
472
534
570
538
485
454
459
514
577
613
658
652
591
558
564
569
546
527
546
530
502
504
542
598
647
699
735
710
693
684
659
639
640
615
622
638
657
706
709
688
657
632
656
713
716
723
698
682
617
545
510
554
597
554
490
496
503
482
452
414
405
404
434
444
410
389
398
404
430
466
468
458
460
465
470
458
444
439
462
458
436
421
440
438
414
406
405
440
477
485
467
467
446
412
409
419
444
466
473
421
381
401
431
447
429
449
498
535
552
581
560
526
529
478
415
426
448
423
445
482
491
512
519
516
536
549
518
494
482
450
453
447
464
485
475
490
515
526
519
477
442
433
444
488
528
549
536
509
501
493
457
451
472
497
542
533
468
397
369
388
446
464
447
458
470
475
476
462
477
509
508
492
476
416
372
358
358
360
387
412
489
563
587
536
475
455
476
439
430
453
474
482
480
487
525
574
572
559
557
566
621
737
827
832
815
808
788
727
636
506
357
234
154
144
161
201
247
282
328
363
398
431
457
479
519
526
473
450
438
438
486
539
576
563
537
531
537
533
520
512
500
499
508
513
502
502
521
515
538
558
549
547
541
520
491
490
477
468
460
476
509
522
556
590
580
526
520
534
525
535
557
590
608
600
562
552
567
597
624
644
625
595
580
577
564
544
553
596
628
671
703
710
659
642
662
645
619
621
667
666
604
577
606
614
588
568
540
517
521
495
468
476
459
449
443
434
389
352
351
375
402
446
471
452
411
389
417
463
443
395
376
390
400
355
328
342
398
407
391
420
459
453
423
414
423
424
433
452
451
462
455
433
433
460
506
527
479
428
455
520
525
477
472
504
514
473
446
465
453
449
470
480
468
446
462
486
514
539
540
484
442
455
477
500
517
541
554
534
524
524
518
529
557
550
480
447
457
461
453
492
531
548
544
520
498
495
500
481
448
499
554
514
464
449
440
479
512
518
500
493
473
455
467
509
530
513
470
439
436
448
475
511
555
572
555
531
541
529
516
519
546
535
494
469
476
500
518
514
532
569
633
696
728
746
781
792
838
891
874
811
730
638
527
427
375
310
209
159
167
239
319
378
432
501
555
566
544
518
522
530
556
562
542
502
476
485
532
577
602
593
579
571
567
551
561
602
623
617
574
544
547
588
611
599
577
530
499
538
578
584
583
592
612
611
612
614
600
587
579
569
564
561
567
587
565
590
654
692
699
673
646
644
655
664
674
663
639
637
651
649
647
645
670
713
778
793
747
689
673
679
666
672
692
689
648
636
646
650
631
635
643
594
563
525
497
513
541
544
529
475
422
391
384
382
430
498
545
529
461
431
428
424
453
475
470
436
408
396
397
406
423
433
436
455
496
507
525
564
580
551
526
532
531
501
482
494
513
516
508
488
514
538
538
546
536
530
562
588
565
518
481
470
468
486
531
572
584
597
597
546
497
491
510
550
573
546
541
563
577
572
555
562
582
590
572
532
527
549
568
567
556
540
545
551
569
571
595
607
592
550
488
458
466
482
523
551
562
578
578
565
527
533
555
545
533
525
511
513
535
528
544
568
582
562
507
484
491
505
481
455
494
558
590
572
555
565
567
540
519
527
549
551
532
533
609
707
752
796
825
825
837
852
834
799
750
669
572
462
350
247
187
216
257
293
363
421
444
429
469
539
579
562
559
546
538
531
520
526
543
540
521
493
526
541
557
556
552
551
515
485
486
537
566
549
550
577
600
596
572
550
516
498
530
556
588
634
633
608
590
573
573
599
611
588
576
570
562
556
533
529
543
547
531
552
603
634
643
650
658
646
631
605
624
660
657
645
650
633
608
623
659
712
739
724
731
704
676
655
590
563
568
585
587
577
585
580
561
550
536
490
435
408
416
422
446
454
442
433
411
393
403
425
407
401
395
397
404
416
419
417
418
417
392
402
426
459
478
469
453
441
423
418
439
456
451
443
470
490
451
428
439
440
435
474
524
537
513
442
413
423
456
457
458
479
497
501
500
485
493
526
510
486
484
492
474
476
484
486
476
476
496
514
540
560
556
513
475
486
494
476
459
450
476
538
592
550
486
466
492
538
570
578
561
533
511
521
523
481
480
523
529
505
491
480
454
443
457
451
450
451
436
412
398
412
462
490
503
484
441
445
473
510
519
531
528
488
454
440
464
476
465
485
525
532
513
488
487
494
506
499
495
536
588
653
730
805
844
859
858
809
730
630
496
363
281
207
166
179
217
249
307
358
353
374
445
484
452
434
450
474
494
495
490
491
472
482
513
520
493
453
450
486
520
515
479
447
458
472
508
535
532
495
458
449
467
522
530
488
443
435
440
444
468
506
503
500
485
491
497
540
577
581
564
535
496
477
484
477
463
477
516
519
518
559
602
571
568
576
577
577
550
546
568
606
623
595
577
582
588
603
596
618
643
640
639
590
565
527
467
443
438
413
396
388
356
329
305
320
366
375
360
353
374
367
368
386
402
392
403
393
353
328
299
296
330
339
319
307
308
328
353
371
400
429
402
379
384
364
325
314
311
335
374
400
412
386
389
410
420
433
439
425
417
410
398
386
365
351
368
420
468
480
450
432
415
394
402
442
437
405
435
455
436
425
432
452
444
441
425
392
390
453
487
477
461
467
475
471
474
465
430
403
406
416
399
409
450
483
480
463
449
433
465
536
557
515
475
483
467
439
433
450
482
464
477
497
482
445
399
386
394
416
432
435
441
449
454
442
445
462
492
489
421
374
402
471
492
474
476
474
471
507
528
482
425
390
427
451
429
414
414
418
430
412
441
467
463
458
500
561
609
655
688
719
763
820
820
775
731
693
601
478
382
301
241
211
215
263
291
296
310
348
377
393
384
390
442
486
537
553
518
514
512
515
490
461
469
480
469
471
483
499
515
541
552
511
482
476
462
456
472
492
498
487
475
481
504
488
485
518
556
582
605
594
551
503
481
489
507
497
485
481
493
504
521
535
559
586
582
561
550
567
586
613
634
617
594
579
588
607
592
599
614
611
624
639
663
682
624
580
606
633
634
617
578
535
500
492
523
563
541
488
439
399
360
366
395
411
391
366
373
379
390
372
346
333
325
353
411
440
470
456
424
416
398
385
384
345
329
337
368
391
431
409
382
386
416
416
415
429
430
404
383
406
428
417
403
397
440
465
467
455
462
455
449
435
408
428
451
475
511
541
521
481
467
451
445
486
520
494
468
458
424
444
488
493
471
420
381
395
430
485
499
498
528
546
563
554
499
457
449
476
518
528
502
481
475
493
481
468
472
494
528
529
503
498
500
495
511
543
528
472
372
344
399
471
493
480
471
481
497
463
449
467
481
506
537
520
489
468
453
454
453
466
494
519
469
382
386
455
499
495
478
488
531
535
524
499
469
463
437
436
488
526
514
493
462
471
509
494
473
477
545
643
713
761
814
843
868
852
816
765
700
611
538
466
368
241
174
191
242
270
297
342
365
402
437
468
502
546
533
501
479
472
464
457
470
515
566
582
580
587
576
549
540
546
566
597
578
518
477
468
502
552
560
527
510
493
454
449
492
521
515
536
537
544
546
556
556
585
606
607
569
525
541
576
592
607
609
594
545
544
548
551
588
601
583
563
564
600
635
648
654
639
601
562
540
569
643
701
723
728
739
715
672
653
639
616
623
605
549
536
531
500
491
505
509
506
492
495
499
455
406
398
355
342
382
414
429
450
467
446
427
442
460
472
465
432
384
383
408
436
480
497
527
522
507
511
506
492
452
412
417
442
464
464
456
470
451
417
396
399
434
474
473
484
496
492
487
490
489
470
443
463
512
569
605
555
489
482
516
545
562
556
531
497
473
492
542
557
538
526
496
501
495
517
540
554
570
558
522
515
536
551
573
596
586
564
549
568
610
603
585
607
651
652
599
579
572
571
589
606
619
632
586
529
539
592
634
632
635
643
635
629
621
616
626
604
577
574
606
620
605
588
600
636
633
609
600
612
641
661
664
665
647
620
575
560
574
620
626
579
518
504
526
527
539
574
592
610
569
548
527
512
538
552
559
569
576
555
530
515
506
532
552
552
538
521
480
455
471
493
522
580
596
557
537
556
579
619
687
693
651
634
744
808
824
847
831
802
780
760
694
597
494
409
326
267
211
217
269
305
334
396
451
490
513
524
528
525
550
564
543
575
584
540
483
435
426
436
466
488
512
519
528
521
472
439
456
490
537
526
512
515
507
488
474
503
550
567
541
516
520
527
530
540
563
568
530
531
543
526
534
573
576
541
510
513
526
529
548
541
545
552
552
582
620
643
616
579
587
601
593
590
612
646
668
671
669
640
605
605
613
602
618
614
591
562
557
563
568
566
545
540
509
433
389
383
402
417
407
433
416
392
372
361
382
371
359
345
356
386
389
368
378
393
403
415
408
376
353
354
389
373
372
401
403
405
395
393
398
431
489
488
438
373
352
377
412
440
467
468
457
458
452
446
446
453
456
446
425
412
419
443
447
462
471
455
439
425
444
440
397
366
360
415
499
524
513
509
518
561
564
516
469
431
427
416
430
462
469
499
546
575
576
554
529
479
434
429
448
458
492
478
497
525
492
482
469
440
453
488
500
496
441
412
429
488
515
542
549
536
559
597
599
605
599
567
527
474
480
501
494
537
560
524
487
482
475
498
539
590
603
552
513
513
485
435
433
455
458
447
476
480
464
505
508
495
497
493
494
510
498
509
544
562
519
455
422
423
467
502
547
527
500
494
507
518
523
511
520
580
668
716
719
738
780
821
866
893
880
838
778
672
536
409
301
215
149
152
202
271
344
397
430
464
501
527
515
473
455
496
553
604
629
649
605
546
514
531
564
570
571
568
562
549
521
522
544
557
563
541
527
514
512
545
566
585
579
575
591
595
588
581
580
581
595
609
596
576
550
528
536
555
613
654
641
619
618
605
601
609
612
631
656
670
653
628
645
699
706
681
638
605
612
666
719
737
726
726
711
694
693
705
677
641
652
659
633
596
624
683
689
624
554
497
470
483
492
478
460
448
428
441
477
486
450
430
406
384
381
390
407
433
457
439
428
428
409
401
432
441
437
450
440
418
420
434
448
457
492
523
487
436
421
441
466
480
508
531
539
525
510
483
470
454
447
466
496
511
529
531
525
545
558
523
486
468
462
451
467
509
532
499
477
470
462
468
506
561
581
572
563
582
565
536
518
528
538
549
538
527
528
544
561
540
491
486
519
528
526
520
525
540
543
540
542
531
521
494
483
501
522
546
570
580
566
543
523
515
538
559
562
537
509
479
492
552
579
550
533
515
521
543
566
558
546
578
595
574
555
523
495
506
549
552
569
612
611
589
567
533
540
564
572
546
552
535
528
525
488
481
495
505
504
502
513
515
524
527
523
505
521
534
521
492
510
537
570
577
570
513
462
480
543
568
533
513
520
526
500
490
490
483
495
506
533
561
576
609
627
641
668
750
828
868
891
888
845
797
700
575
468
369
271
224
202
210
269
339
367
383
425
465
470
479
471
455
507
581
600
594
577
571
550
525
498
473
489
542
597
626
626
592
582
563
539
521
518
544
544
523
523
548
574
565
536
491
503
520
530
547
573
582
570
558
558
570
549
537
520
548
537
524
562
621
665
638
584
559
560
604
656
666
647
611
582
591
621
624
631
634
635
655
677
670
659
655
646
631
604
616
602
594
601
615
620
574
549
567
561
526
502
504
506
498
496
500
474
454
430
413
403
361
319
315
351
340
342
381
378
366
377
416
444
426
409
417
393
349
389
421
443
471
462
440
446
443
427
394
414
434
435
421
406
398
414
423
431
458
473
470
468
494
493
413
363
391
444
494
482
453
441
481
516
510
466
411
371
393
462
526
522
502
499
483
445
432
460
498
490
480
485
488
479
457
434
444
478
482
483
464
440
435
410
402
445
485
486
473
473
473
473
451
431
419
440
478
500
487
473
483
493
506
509
518
504
496
492
496
509
535
541
518
507
497
485
469
449
435
464
485
473
429
369
348
385
447
491
498
483
458
430
397
383
412
441
448
459
482
487
478
466
467
498
540
550
519
485
469
461
453
434
432
469
504
513
529
510
509
546
516
541
609
646
688
754
791
781
752
701
596
467
365
303
238
185
180
192
223
278
339
390
413
434
477
506
517
501
499
528
528
525
520
506
459
432
415
440
473
506
513
521
564
581
543
507
512
509
507
504
492
447
442
473
526
541
499
481
494
522
537
545
557
590
596
561
532
528
508
490
492
519
558
576
574
543
527
524
527
525
554
601
619
593
584
595
585
573
551
554
580
584
553
586
651
684
696
698
696
694
672
630
629
620
602
596
598
591
544
474
428
425
419
420
424
420
408
404
401
384
350
325
331
323
308
335
371
372
403
444
461
469
454
396
352
348
359
376
406
433
397
372
376
393
420
416
406
408
400
375
352
368
420
464
436
396
393
420
444
407
368
383
445
487
470
475
484
510
537
530
522
503
462
437
437
432
444
458
474
501
513
519
495
459
448
456
448
455
482
488
489
477
411
378
390
428
476
508
520
541
569
550
544
545
530
518
476
484
513
486
443
454
475
492
493
491
494
484
470
461
457
469
510
528
491
463
438
435
457
485
506
522
525
531
533
531
499
468
489
544
616
635
619
615
572
522
495
459
462
468
467
427
408
420
452
475
460
454
442
464
503
510
500
497
479
468
438
439
492
535
560
558
538
515
519
499
489
475
475
480
476
469
489
506
515
530
576
622
674
738
802
829
836
833
793
745
691
589
482
384
294
197
155
222
311
360
360
357
382
425
438
442
472
513
500
495
503
533
548
526
518
525
553
527
503
524
533
520
491
482
501
514
510
522
517
504
517
534
510
512
543
558
548
512
481
513
565
560
539
553
567
560
539
501
497
529
556
542
528
535
541
564
570
566
570
549
553
584
604
607
609
610
591
596
636
651
657
653
622
599
601
600
609
667
697
688
675
661
639
613
617
621
594
580
582
558
524
504
496
508
511
469
428
404
390
388
414
418
392
412
416
398
381
352
321
343
427
494
468
406
393
380
383
392
461
501
462
430
434
431
388
354
362
393
416
441
469
505
517
473
450
438
426
409
397
412
432
427
431
468
498
467
463
470
484
493
515
515
512
500
496
497
471
446
416
426
469
504
522
532
523
509
541
562
527
476
413
385
438
518
518
474
463
515
508
483
457
442
481
498
499
466
451
499
528
543
559
560
557
527
493
499
516
521
506
504
491
478
474
468
458
486
499
511
531
559
544
512
475
454
463
539
601
601
562
587
626
611
564
484
438
465
494
488
443
421
430
461
484
500
496
510
534
513
500
497
517
514
505
471
441
451
496
522
557
563
537
531
472
429
485
515
557
572
534
499
493
476
500
546
603
665
738
794
859
913
914
872
799
697
572
462
376
297
252
245
235
242
300
332
387
439
449
452
454
485
547
601
583
511
487
519
546
532
494
475
508
565
616
616
582
537
526
530
541
531
521
574
616
583
538
531
524
508
506
511
520
533
532
555
534
481
490
557
629
666
629
547
507
540
595
641
679
641
589
549
527
552
590
612
636
634
614
608
596
584
606
622
622
616
647
671
658
671
702
729
719
689
693
723
693
633
617
635
633
636
632
637
607
601
597
557
512
482
481
499
499
473
443
426
419
413
412
418
434
424
415
450
482
450
450
454
437
390
362
356
371
426
466
458
422
452
455
407
401
438
474
507
539
542
519
500
478
468
487
496
496
468
454
441
449
469
462
470
510
527
546
538
495
466
446
456
483
530
583
606
579
524
520
533
543
538
527
522
528
544
548
544
552
566
551
526
511
511
508
501
497
496
478
462
481
519
530
564
582
564
515
480
491
510
543
570
584
605
599
578
542
555
561
549
540
503
501
548
595
630
609
590
591
590
571
535
539
532
517
512
478
435
463
501
540
568
596
572
571
590
586
552
533
545
552
557
585
587
550
552
539
502
462
452
462
458
485
504
516
533
530
537
549
564
559
502
468
508
569
609
599
604
668
712
748
791
834
860
870
838
776
741
684
603
486
375
282
193
144
177
289
413
442
418
429
490
499
493
513
544
598
624
587
542
536
571
589
588
559
524
489
477
471
463
487
527
549
515
503
549
548
554
580
594
574
515
491
516
559
582
602
601
594
603
625
585
527
489
525
553
536
542
588
583
524
505
506
516
530
555
581
605
607
605
609
635
670
692
691
674
651
639
642
645
624
625
673
706
716
718
704
670
579
532
568
591
544
526
533
568
585
577
597
610
625
621
586
520
453
422
388
388
412
380
339
347
364
385
414
386
341
333
366
379
364
335
348
389
421
447
443
426
407
420
430
434
423
420
428
436
446
434
407
399
421
439
429
428
428
406
393
409
445
440
423
418
417
457
503
526
514
507
493
467
499
492
458
461
478
458
412
397
420
449
444
470
526
553
542
512
470
424
396
417
501
573
534
531
496
463
437
419
476
515
526
534
528
481
455
473
493
519
520
494
477
457
459
466
481
474
447
435
468
492
490
480
477
497
519
526
509
519
535
539
505
478
453
441
447
439
460
486
494
472
458
465
495
504
487
463
459
454
464
466
487
488
480
451
417
419
476
499
497
518
532
496
427
419
460
495
500
492
515
551
591
593
626
714
781
813
824
794
728
673
650
591
493
381
288
236
200
203
232
281
348
400
427
407
414
438
454
469
468
487
509
533
563
571
570
515
454
425
467
513
523
528
524
505
513
509
501
508
519
508
497
512
519
513
506
500
502
529
564
572
534
484
435
452
508
545
545
577
602
599
568
540
531
524
495
485
500
556
598
609
613
606
590
554
536
538
565
617
670
704
701
653
606
604
612
608
617
632
620
596
567
590
629
652
651
619
581
583
597
580
525
494
499
489
454
421
403
409
451
463
477
501
441
375
337
323
321
348
367
405
425
420
377
356
365
400
427
441
388
354
348
334
362
391
361
327
325
338
372
437
477
474
470
477
462
467
442
429
439
447
432
424
438
474
484
467
463
456
434
434
463
513
517
498
482
490
494
438
400
446
495
497
473
457
460
489
505
532
557
550
496
460
448
461
473
462
475
471
468
456
465
476
467
466
475
490
561
611
602
546
479
433
434
453
456
444
481
544
525
507
486
464
466
480
499
521
520
539
536
532
539
523
509
500
505
525
518
527
530
529
513
475
477
484
497
517
517
514
499
451
404
416
457
488
523
547
548
543
517
498
527
532
510
507
535
571
554
535
517
479
491
510
500
488
519
539
566
587
573
578
640
738
823
813
792
808
765
751
759
729
656
535
417
301
226
175
181
252
297
349
413
464
480
504
513
525
539
543
553
564
544
529
532
504
481
483
527
558
556
564
529
474
456
446
473
512
517
532
563
595
587
563
568
549
537
570
595
574
553
518
495
503
513
525
527
532
541
535
514
518
529
550
582
566
539
527
533
557
608
631
627
643
674
669
651
628
615
621
664
677
658
640
636
631
637
618
603
626
683
710
676
647
611
594
596
579
571
590
583
575
555
537
519
487
456
447
470
459
396
381
398
402
411
407
431
454
461
416
361
393
423
427
424
421
409
391
388
421
416
419
444
463
464
467
464
461
483
486
495
484
430
411
469
500
489
497
490
454
469
499
474
442
426
435
485
497
489
492
494
493
478
470
478
481
508
527
557
547
530
534
551
557
549
529
511
520
500
496
510
528
553
534
532
536
558
516
505
545
535
528
531
502
470
470
500
530
544
559
586
580
580
593
613
618
598
580
580
580
558
527
535
579
594
582
571
558
527
512
564
621
620
594
560
530
516
490
504
542
579
592
574
539
519
515
523
529
563
596
605
565
521
505
532
570
583
605
593
568
560
566
573
556
537
528
535
545
575
550
501
513
555
606
634
637
653
685
719
776
809
834
855
890
904
894
864
761
645
538
452
384
316
250
219
295
407
426
440
489
521
521
523
554
607
565
515
507
549
593
571
571
599
635
662
633
594
563
551
551
557
597
656
667
610
586
575
570
587
557
538
517
494
517
581
628
639
606
581
590
611
627
627
619
587
589
609
628
640
638
632
618
606
605
632
633
609
595
592
602
627
659
656
633
648
691
720
703
679
651
647
659
683
696
700
722
720
705
702
717
711
688
664
622
598
618
621
571
484
412
378
434
493
515
525
525
524
503
441
398
420
472
465
418
390
392
402
442
450
423
403
411
411
414
459
471
467
432
402
394
390
433
459
461
468
490
478
408
398
466
487
462
442
442
453
447
453
419
393
432
497
552
587
571
527
502
480
468
474
487
488
489
473
441
445
479
486
451
435
465
476
499
549
586
561
512
453
448
473
476
510
528
516
518
540
533
524
526
524
507
487
489
498
520
526
520
510
497
483
470
473
453
464
510
513
500
497
513
528
525
499
498
511
536
573
542
490
474
511
529
533
550
532
501
499
528
531
521
536
537
521
499
471
442
418
451
516
527
496
487
471
441
407
418
482
504
515
536
490
440
462
528
570
541
487
471
484
459
460
471
469
457
426
419
472
524
516
458
414
432
509
558
575
608
649
695
745
799
867
918
901
807
689
606
555
508
379
228
141
124
133
186
246
285
320
362
402
409
423
450
455
462
479
474
466
481
501
456
407
424
488
504
508
529
534
539
545
472
410
355
310
355
433
489
507
484
469
469
468
466
474
467
466
465
452
461
487
484
502
537
520
474
465
501
567
574
534
469
435
444
424
416
424
439
474
521
535
530
545
583
628
633
589
580
593
597
603
618
625
621
620
605
541
503
520
563
564
529
540
584
608
591
557
545
522
485
444
408
346
299
300
298
314
363
381
381
401
416
388
336
296
304
336
345
367
387
419
412
396
389
353
310
307
339
338
331
339
364
399
402
365
365
381
390
409
394
369
365
395
390
367
368
394
396
414
459
458
479
476
436
383
404
460
466
439
421
398
365
351
406
463
428
403
435
452
416
413
389
379
358
363
379
422
487
500
467
444
405
371
392
393
389
408
445
457
437
401
379
394
395
407
430
447
451
437
434
433
423
398
394
420
409
374
368
367
366
396
419
450
468
459
389
394
463
460
418
401
409
400
386
426
458
471
464
452
428
422
429
421
428
449
465
449
431
410
403
434
482
492
471
451
451
439
419
398
401
430
433
450
446
447
483
484
457
449
450
479
513
538
531
478
452
476
498
505
480
439
433
477
547
574
620
684
728
765
753
738
743
710
653
524
431
430
382
294
216
185
208
253
262
313
378
413
458
494
513
504
518
527
505
433
415
460
487
470
450
471
536
611
575
527
499
504
527
513
499
497
502
536
571
550
523
541
588
606
543
467
485
527
533
504
522
570
595
585
527
478
491
498
501
518
528
543
582
626
640
629
613
587
589
591
618
616
586
563
641
742
763
711
685
732
759
705
656
650
653
661
663
694
730
725
698
670
640
609
585
608
636
627
588
560
561
542
496
456
439
461
468
461
467
427
409
412
416
433
432
407
392
429
469
481
439
415
399
407
424
441
454
453
428
426
464
490
471
497
527
504
471
441
429
448
507
545
521
469
448
460
487
447
394
398
437
486
518
525
523
538
516
485
442
467
503
502
499
527
558
556
564
563
546
561
545
482
457
441
438
463
540
577
570
570
602
593
589
571
527
480
444
438
477
518
524
572
629
638
614
580
557
554
565
562
540
524
501
487
489
485
486
505
530
550
554
559
550
544
558
521
514
496
466
439
442
490
534
555
565
571
571
549
534
500
428
402
451
490
525
531
533
549
556
529
510
513
518
525
525
513
490
475
498
514
493
480
493
491
483
472
461
465
477
477
479
499
574
576
565
521
450
416
427
497
539
546
530
535
529
506
489
472
468
461
432
428
448
475
475
482
525
590
655
695
742
802
842
830
810
794
787
718
631
530
439
367
291
235
213
211
237
303
387
464
453
390
408
473
489
467
456
500
532
527
495
477
504
549
569
542
513
503
515
544
558
532
523
531
573
611
582
533
489
469
463
494
539
560
567
547
567
581
551
525
493
533
561
543
543
553
561
564
570
586
604
618
607
603
579
594
600
580
572
562
567
587
599
601
607
613
653
693
717
707
694
668
648
621
632
666
662
616
628
702
755
717
648
618
596
573
540
526
545
555
534
499
497
508
492
448
424
429
462
466
427
406
379
393
419
386
350
341
354
385
457
492
440
391
373
380
380
412
432
444
452
446
448
443
421
420
440
434
456
482
496
499
490
484
503
538
559
533
427
360
388
461
469
444
432
438
460
509
555
567
577
585
580
514
464
465
478
477
487
514
543
566
577
557
527
524
539
519
499
521
551
555
551
511
455
443
484
514
534
528
504
497
515
556
562
557
535
509
496
506
520
524
532
544
541
499
506
515
499
468
484
533
548
569
562
501
473
496
516
517
539
545
531
517
548
591
597
580
575
550
527
504
492
530
548
514
492
488
513
555
545
519
499
483
481
492
509
531
561
573
555
539
523
485
463
492
517
547
541
529
549
562
563
538
511
520
530
542
543
528
491
497
546
604
665
716
740
756
792
839
866
864
850
851
809
707
562
417
314
275
247
224
252
314
360
416
472
467
460
492
507
512
487
506
563
597
594
517
477
492
519
553
574
559
571
601
604
612
601
555
510
486
497
493
486
534
559
551
569
602
613
622
637
613
563
531
527
531
561
552
534
547
574
574
605
634
636
635
606
565
577
586
545
558
600
614
615
633
611
569
591
666
692
692
686
701
690
660
623
651
689
711
736
724
673
634
632
636
644
649
651
648
626
609
614
565
522
468
438
474
474
489
510
504
455
393
333
348
422
457
439
403
382
387
398
397
400
395
390
416
433
446
456
429
382
391
421
446
409
393
419
472
503
466
453
417
413
434
468
483
489
474
463
466
464
471
489
516
527
516
537
547
474
412
433
461
496
545
566
532
502
480
493
492
481
496
504
489
505
529
520
