661
752
844
939
1023
1023
1023
1023
1023
982
817
667
556
472
430
391
323
309
334
363
356
335
339
349
369
368
335
340
367
373
356
363
379
387
391
386
382
388
390
399
417
441
440
448
452
453
442
449
464
448
434
453
481
486
494
515
520
501
493
519
531
545
588
588
598
613
585
607
616
609
633
663
627
574
572
583
591
604
609
614
616
593
605
644
669
688
687
675
648
629
616
595
609
648
664
641
609
588
584
581
599
598
559
540
540
540
522
519
527
520
506
503
500
483
470
503
523
510
497
474
477
471
461
457
441
461
483
481
458
443
432
432
435
432
451
424
389
385
399
376
382
384
357
350
370
385
402
373
369
392
398
366
337
344
367
382
371
352
345
358
361
364
374
378
381
378
364
347
361
370
341
309
295
311
320
326
320
302
297
297
291
283
277
273
269
267
268
282
294
311
307
302
301
300
320
314
335
334
321
330
316
296
292
293
308
327
326
335
329
309
306
296
285
298
298
318
335
324
339
358
359
378
389
384
385
389
383
372
381
402
413
411
419
420
423
432
455
458
445
429
426
429
428
430
432
440
457
464
462
456
460
471
463
449
441
447
467
467
458
452
460
464
475
480
470
464
474
485
491
509
507
493
501
522
530
539
547
526
505
494
490
488
461
444
448
461
461
446
438
447
446
432
437
446
453
448
432
432
440
439
457
471
466
455
433
425
435
450
466
461
461
472
465
438
439
453
473
487
463
438
416
388
369
372
400
428
447
495
570
680
786
882
972
1023
1023
1023
1001
858
717
592
502
448
402
365
344
309
302
312
311
323
331
322
324
316
317
343
359
373
384
378
367
360
388
397
383
372
378
377
363
379
384
374
380
395
417
427
425
413
400
412
445
452
450
423
412
419
426
439
453
467
473
467
469
458
439
441
445
442
448
457
453
477
492
492
509
525
526
512
504
509
506
500
528
568
562
537
518
496
497
527
545
542
544
535
535
549
559
562
577
583
580
578
552
535
542
552
560
574
615
629
621
603
585
561
568
584
584
562
555
546
531
537
532
539
556
542
509
494
482
483
516
531
518
518
493
463
450
469
483
475
457
443
457
460
458
461
461
463
473
493
492
478
468
485
477
468
466
461
468
473
468
467
468
492
509
477
460
449
460
477
489
497
483
459
462
467
462
454
458
474
492
517
514
480
467
479
507
519
506
501
499
490
467
472
504
529
529
521
491
480
478
479
512
534
519
508
490
479
470
465
493
501
494
513
526
507
502
510
505
512
519
512
520
536
536
521
518
523
530
526
516
521
521
507
494
528
538
550
567
547
504
490
499
499
492
502
534
545
508
503
527
552
558
535
515
508
503
506
523
546
564
544
507
497
526
566
580
559
553
535
533
545
550
542
541
572
594
595
590
577
561
554
527
533
532
534
539
524
132
107
231
424
573
602
474
264
136
111
233
422
570
598
470
262
135
109
230
422
574
604
477
268
138
115
239
430
580
610
483
273
140
118
239
429
579
609
484
274
141
114
235
427
577
608
483
273
141
115
235
424
576
610
489
280
144
119
238
429
581
614
493
282
145
122
242
432
584
618
496
285
147
120
239
429
581
617
497
288
148
124
244
433
586
621
501
291
149
124
243
434
590
628
509
298
153
126
244
435
591
629
512
301
155
129
246
436
591
630
516
305
157
130
248
437
592
631
516
304
156
130
246
434
588
628
515
304
156
128
243
432
590
633
523
314
161
133
246
434
591
634
523
315
162
139
255
444
601
643
532
320
164
137
251
439
595
638
528
317
163
133
246
433
590
634
527
319
164
135
247
435
593
642
535
326
168
137
246
434
594
642
537
328
169
140
252
440
598
647
543
334
173
143
253
440
599
646
542
334
173
142
250
438
598
646
544
337
175
144
252
438
599
650
547
340
176
144
252
438
599
649
548
341
177
145
251
437
598
650
550
342
177
144
250
435
598
651
553
346
180
145
251
436
598
651
554
348
182
147
252
436
598
652
555
350
182
149
252
436
597
651
554
348
181
142
244
429
592
649
555
350
182
143
243
425
587
644
552
349
181
140
240
423
585
643
550
346
179
138
238
420
584
645
555
351
182
138
235
417
580
640
551
348
180
135
233
415
577
637
549
349
180
133
228
410
574
636
549
348
180
135
231
413
577
637
550
350
181
135
230
410
575
638
552
351
182
137
232
413
578
640
554
353
183
133
226
406
572
636
554
352
182
131
224
405
573
639
555
354
183
134
227
408
575
640
558
359
187
135
225
405
570
637
555
357
185
135
226
406
572
639
560
360
186
132
222
403
573
642
562
364
189
136
224
404
574
644
566
370
194
142
233
414
584
653
575
376
198
146
236
416
585
655
578
381
202
150
240
419
587
657
580
384
205
151
238
416
586
660
585
388
209
154
241
422
592
664
590
393
212
157
244
425
597
670
597
400
218
161
246
425
597
672
602
408
228
174
260
438
610
685
615
420
237
179
263
440
612
686
616
421
239
182
267
447
621
698
628
434
250
191
276
454
629
707
641
446
262
203
286
464
637
714
647
454
270
208
290
467
641
718
652
459
273
211
293
471
648
728
664
471
284
222
302
480
656
736
672
481
295
232
314
492
668
748
685
492
305
242
322
500
675
755
693
501
315
251
330
509
685
764
703
513
326
260
338
515
692
774
714
523
334
269
346
522
698
781
722
532
343
278
358
537
714
797
737
546
354
286
362
538
714
797
738
550
362
296
372
548
724
808
752
562
370
300
374
551
728
813
757
568
376
305
380
554
728
812
755
566
374
301
373
549
727
814
760
573
381
308
379
554
730
817
762
577
385
312
385
559
735
823
770
583
390
315
384
557
734
822
770
585
392
317
387
559
735
824
772
586
392
314
381
554
731
819
769
585
392
314
381
554
731
819
770
588
394
315
382
554
731
822
775
592
400
322
386
556
732
822
775
594
400
320
384
554
731
822
776
593
397
317
382
552
730
822
777
595
399
315
376
544
721
815
772
591
397
317
379
548
726
819
775
594
398
314
372
540
718
812
771
593
398
313
374
541
719
813
771
593
397
312
370
536
714
808
769
591
395
308
363
527
704
799
757
581
384
297
353
519
697
793
754
578
382
294
348
511
688
784
747
573
378
291
345
506
683
779
743
571
376
286
335
495
673
772
738
567
371
280
328
487
664
762
729
559
364
273
323
482
660
759
730
562
367
273
318
474
650
750
722
558
365
272
317
471
646
746
718
553
359
263
305
458
635
737
711
549
357
262
302
453
627
729
703
543
352
256
295
444
619
722
701
544
354
255
288
432
604
708
691
537
349
251
283
427
597
702
686
534
347
246
275
415
587
694
679
530
344
244
271
408
576
680
664
516
330
228
254
391
559
665
654
511
329
226
247
381
547
653
643
504
325
222
241
369
534
642
635
497
319
214
232
360
525
634
630
496
318
213
228
353
514
620
617
487
312
208
222
344
504
615
616
487
314
208
218
337
494
603
606
482
312
207
215
331
490
600
605
483
314
207
212
326
483
593
601
483
316
209
214
326
479
588
596
478
311
203
206
317
469
580
590
476
310
201
202
309
460
572
585
473
309
201
200
306
456
568
582
471
307
199
196
301
452
565
581
474
311
202
200
303
450
561
576
468
307
199
197
301
449
561
579
474
314
206
202
303
450
562
581
480
322
216
213
314
462
576
596
494
335
227
225
326
473
589
612
515
358
252
248
350
497
611
632
532
373
266
262
362
509
624
646
547
390
283
278
375
519
633
655
557
402
295
290
386
529
642
665
569
413
304
298
394
537
650
676
582
426
317
312
408
551
662
685
589
432
324
319
414
556
669
693
601
447
338
331
423
562
672
696
605
452
344
338
430
568
677
703
612
460
351
343
434
573
684
712
623
472
362
352
440
575
683
711
622
470
360
351
440
577
686
714
626
475
367
355
440
574
681
706
619
470
362
351
438
573
682
711
627
479
368
355
439
571
680
710
626
477
367
353
436
569
679
709
626
478
367
353
436
568
677
708
626
480
369
352
434
565
674
706
625
478
367
352
434
566
676
707
626
478
366
348
427
558
668
702
624
478
366
350
429
559
669
703
624
477
365
346
426
557
667
700
623
479
368
351
429
559
668
701
624
479
368
351
428
557
668
703
626
480
369
350
427
555
666
701
626
482
368
347
423
552
665
700
625
479
365
345
422
552
663
700
626
482
368
346
419
546
657
693
620
477
365
345
419
545
657
695
624
479
362
339
411
537
648
687
617
476
363
340
413
540
652
690
619
476
362
340
413
541
653
694
624
481
367
344
415
540
651
690
621
480
365
341
413
540
650
688
619
478
363
338
409
536
649
690
623
481
366
341
411
536
648
688
620
479
362
334
404
531
646
689
622
481
365
339
409
535
647
688
622
481
365
340
408
533
646
688
621
479
363
335
402
528
642
686
622
483
366
336
403
527
640
683
620
481
365
336
403
529
644
690
628
490
373
342
408
532
644
688
626
487
370
343
410
533
646
690
626
488
371
342
408
531
643
688
627
489
371
340
404
528
643
690
629
490
371
339
403
526
640
686
628
491
372
339
401
524
637
683
624
487
369
338
402
525
640
688
630
490
369
336
398
520
634
682
626
490
372
338
400
521
634
682
625
488
368
334
395
517
632
682
626
490
368
334
397
518
633
682
625
488
368
334
395
516
631
682
628
492
370
335
395
516
631
680
627
492
372
338
399
520
637
687
633
497
377
342
401
521
635
687
634
498
376
339
397
516
633
686
633
498
376
338
397
517
632
683
629
494
372
335
392
512
628
681
630
497
375
336
393
512
628
680
629
496
373
334
391
510
628
682
633
498
375
337
395
516
633
688
638
503
379
337
394
514
632
686
637
502
377
335
390
506
623
677
628
495
372
333
390
510
628
684
636
501
376
335
390
510
631
688
641
508
384
343
397
515
632
688
641
507
382
340
397
517
636
694
650
520
395
351
407
525
643
700
654
525
401
359
414
533
651
707
661
529
405
366
420
538
655
712
668
539
417
378
435
553
668
722
676
544
422
383
440
560
679
735
689
557
431
390
445
565
685
741
695
561
433
393
449
573
692
747
698
558
428
386
443
563
683
739
691
553
424
382
438
559
671
718
658
517
390
355
418
540
653
698
639
502
383
355
423
548
662
709
652
515
396
369
438
563
675
720
661
521
397
368
441
573
693
744
690
551
428
400
473
606
729
782
730
592
465
433
502
635
760
813
751
592
441
383
433
555
675
726
666
512
366
314
370
499
628
684
629
478
333
283
340
469
599
660
609
462
320
269
324
452
580
640
589
444
304
252
304
430
557
620
576
437
300
246
292
413
540
603
563
429
293
239
283
401
524
587
551
420
287
230
270
384
506
573
541
416
287
229
266
376
496
562
534
414
284
224
256
363
482
550
524
409
283
222
250
353
470
536
513
401
277
215
244
348
467
538
519
410
287
223
248
348
464
535
519
413
291
228
252
352
470
541
525
417
295
230
253
353
472
544
529
423
301
237
261
362
480
551
537
435
313
249
273
372
489
561
548
445
323
258
279
376
492
563
550
448
328
263
283
380
495
566
555
454
331
264
281
376
491
564
553
453
333
268
286
381
494
564
554
456
334
267
284
377
488
558
549
451
329
250
253
378
598
867
1023
1023
1023
1023
1023
1023
1023
1023
1023
1023
1023
1023
1023
1023
1023
1023
1023
1023
1023
1023
1023
1023
1023
1023
1023
1023
1023
1023
1023
1023
1023
1023
1023
1023
1023
1023
1023
1023
1023
1023
1023
1023
1023
1023
1023
1023
1023
1023
1023
1023
1023
1023
1023
1023
1023
1023
1023
1023
1023
1023
1023
1023
1023
1023
1023
1023
1023
1023
1023
1023
1023
1023
1023
1023
1023
1023
1023
1023
1023
1023
1023
1023
1023
1023
1023
1023
1023
1023
1023
1023
1023
1023
1023
1023
1023
1023
1023
1023
1023
1023
1023
1023
1023
1023
1023
1023
1023
1023
1023
1023
1023
1023
1023
1023
1023
1023
1023
764
403
214
116
64
36
20
12
8
5
4
3
2
2
2
2
1
1
1
1
1
1
1
1
1
1
1
1
1
1
1
1
1
1
1
1
1
1
1
1
1
1
1
1
1
1
1
1
1
1
1
1
1
1
1
1
1
1
1
1
1
1
1
1
1
1
1
1
1
1
1
1
1
1
1
1
1
1
1
1
1
1
1
1
1
1
57
451
1023
1023
1023
1023
1023
1023
1023
1023
1023
1023
1023
1023
1023
1023
1023
1023
1023
1023
1023
1023
1023
1023
1023
1023
1023
1023
1023
1023
703
370
197
107
59
33
19
11
7
5
3
3
2
2
2
1
1
1
1
1
1
1
1
1
1
1
1
1
1
1
1
1
1
1
1
1
1
1
1
1
1
1
1
1
1
1
1
1
1
1
1
1
1
1
1
1
1
1
1
1
1
1
1
1
1
1
1
1
1
1
1
1
1
1
1
1
1
1
1
1
1
1
1
1
1
1
1
1
1
1
1
1
1
1
1
1
1
1
1
1
1
1
1
1
1
1
1
1
1
1
1
1
1
1
1
1
1
1
1
1
1
1
1
1
1
1
1
1
1
1
1
1
1
1
1
1
1
1
1
1
1
1
1
1
1
1
1
1
1
1
1
1
1
9
46
115
184
240
286
329
372
413
450
467
474
479
483
508
537
566
605
646
695
727
746
751
748
741
759
798
814
802
757
713
693
697
735
765
777
826
915
983
1023
1023
1023
1023
1023
1023
1023
1023
1023
956
868
829
794
759
721
698
678
681
714
723
734
748
745
731
738
755
775
802
828
836
814
792
806
814
803
805
829
820
784
755
745
743
751
740
737
737
736
752
774
769
757
763
752
731
707
706
725
736
739
750
746
726
719
704
698
729
746
731
735
752
748
722
705
712
710
713
729
715
712
720
710
711
710
693
699
708
686
661
651
660
677
690
702
712
710
687
659
659
701
732
723
687
666
654
672
705
714
693
700
697
687
695
689
685
684
681
692
683
668
651
630
633
639
632
620
593
570
574
579
574
565
562
563
559
545
532
511
488
467
474
479
474
483
499
502
495
481
483
489
506
508
475
478
490
476
490
494
487
489
487
480
470
477
479
438
433
456
469
479
482
501
533
563
554
552
556
564
577
575
568
563
556
551
541
547
558
572
586
599
608
594
544
533
557
593
610
620
602
580
588
592
605
631
631
616
603
608
613
611
618
605
607
622
634
621
611
600
578
581
596
607
619
601
590
579
583
593
617
642
638
615
607
592
578
596
609
608
604
600
586
572
561
584
602
592
578
568
568
571
574
566
559
550
539
540
536
545
548
532
547
568
534
486
470
462
488
527
536
546
532
515
513
518
525
519
516
548
569
548
509
482
465
460
472
478
481
470
450
444
453
451
454
452
443
440
442
448
445
427
423
439
452
458
470
454
444
456
448
430
441
439
441
455
463
459
468
498
491
499
494
474
480
479
458
435
432
445
473
512
540
600
728
838
936
1023
1023
1023
1023
1023
1023
1023
892
765
674
587
508
485
496
500
480
459
434
428
444
460
464
459
443
435
425
413
425
428
432
452
452
440
445
421
414
431
452
488
493
470
473
470
454
464
474
492
509
504
493
478
470
494
532
549
544
543
554
557
552
546
521
504
522
538
547
557
579
598
597
610
612
599
592
575
567
604
627
640
644
647
639
627
651
679
677
681
702
708
686
664
685
723
759
767
750
753
749
734
729
747
770
778
779
770
768
777
799
823
844
840
823
805
790
794
812
834
848
856
868
884
867
830
860
890
852
805
792
777
777
776
780
771
772
751
722
709
723
721
722
742
765
771
770
751
688
640
644
647
653
659
669
671
653
635
647
673
674
663
648
638
629
638
669
667
638
634
656
663
652
631
608
603
620
628
628
627
634
613
606
640
658
646
617
614
601
599
594
586
589
590
589
571
551
557
565
558
555
533
540
553
557
548
517
498
489
492
494
488
473
460
462
466
468
462
467
457
454
461
456
454
445
439
432
411
389
372
363
369
379
380
369
370
381
360
340
326
326
321
308
291
272
250
232
227
221
222
222
222
206
187
203
222
236
244
253
249
215
210
223
231
245
265
234
212
217
234
235
244
264
278
290
292
296
307
322
320
329
344
345
330
313
322
323
331
320
303
321
354
359
333
329
353
369
359
357
376
384
367
381
418
431
428
415
406
401
401
408
434
454
461
475
487
476
468
478
454
414
379
370
381
387
414
469
546
634
765
907
1023
1023
1023
1023
1023
1023
1012
862
729
602
502
455
437
427
428
424
404
385
372
378
393
389
380
393
407
432
458
463
449
440
475
511
536
549
532
517
536
556
577
572
575
546
520
551
575
597
640
664
669
671
655
645
676
730
761
758
745
746
756
786
819
844
872
881
884
903
915
924
941
947
969
939
899
904
938
970
985
1004
1000
1003
1022
1023
1023
1023
1023
1023
1023
1023
1023
1023
1005
1010
1023
1023
1023
1023
1023
1002
996
1006
1023
1022
1009
994
980
958
941
957
973
974
956
933
924
921
888
883
895
894
877
861
834
809
794
782
778
784
786
769
752
728
708
696
692
682
653
621
622
634
614
593
598
597
568
546
538
534
526
512
504
501
503
506
505
494
488
507
508
488
468
462
444
421
422
413
397
380
374
372
380
403
425
424
416
412
420
432
413
386
376
372
366
361
361
393
413
401
398
411
418
439
456
443
408
389
386
388
379
378
391
409
404
396
395
392
391
389
409
433
446
430
411
422
434
452
477
468
440
418
423
437
440
454
466
460
446
442
448
465
473
478
485
479
468
457
456
460
464
475
481
484
480
476
485
476
488
521
570
597
591
578
553
522
492
488
499
499
520
523
508
508
536
582
614
604
595
592
581
582
587
573
550
524
515
492
481
480
481
508
524
533
531
532
522
516
513
515
530
550
502
484
503
500
482
489
485
479
484
479
464
478
509
523
527
522
521
511
488
471
473
474
475
484
503
504
539
612
732
880
998
1023
1023
1023
1023
1023
1023
1023
879
748
624
527
478
467
459
457
453
435
425
417
412
403
396
406
421
424
407
397
390
388
393
415
432
427
412
426
452
458
457
454
445
443
440
453
459
443
453
478
463
434
452
480
483
477
462
472
482
479
490
494
497
494
518
527
518
492
473
481
500
521
522
536
563
569
560
546
553
576
561
552
543
509
489
482
506
528
556
579
573
574
576
580
581
578
586
591
587
579
579
591
567
576
600
615
608
593
582
563
560
587
615
629
627
622
616
630
645
632
624
621
607
605
601
596
587
582
590
581
570
561
555
540
531
541
553
576
567
551
534
526
516
514
536
553
563
569
559
539
534
544
550
557
549
548
590
589
551
520
510
518
528
537
547
540
527
519
522
547
575
577
574
570
566
572
584
579
576
585
582
576
584
577
562
566
571
561
563
567
554
564
569
592
614
623
614
589
576
571
585
592
579
566
576
588
570
550
553
577
578
574
581
572
550
538
541
546
559
571
570
566
569
577
581
574
575
585
590
585
585
592
597
577
567
567
566
565
579
592
595
591
591
590
607
617
579
576
585
588
594
594
589
598
616
622
610
621
638
642
643
638
623
613
623
628
608
592
581
582
589
574
567
581
585
576
544
519
512
533
546
561
568
557
556
557
551
540
534
534
526
518
517
530
545
544
535
554
569
573
554
545
520
486
477
486
490
514
556
586
630
704
813
939
1023
1023
1023
1023
1023
1023
1023
990
852
714
604
507
456
457
460
460
436
419
402
385
389
416
443
466
471
456
431
411
418
437
475
493
499
541
539
490
453
438
440
450
455
467
477
485
494
508
509
499
508
513
506
508
529
541
533
535
562
587
576
553
545
532
537
526
518
521
523
517
529
537
538
545
559
579
579
576
557
548
571
592
606
606
584
561
555
559
582
600
598
603
610
592
587
572
562
576
589
599
612
615
599
598
610
626
630
623
613
603
600
600
618
645
635
620
608
606
613
598
607
648
647
610
583
560
538
551
575
569
558
574
580
556
539
541
555
557
556
555
542
533
518
506
505
520
536
557
580
580
572
551
516
489
480
484
500
493
495
509
532
551
564
555
549
545
538
556
573
566
561
557
555
543
529
522
513
537
580
595
603
593
558
530
540
534
525
527
531
528
524
529
528
529
534
530
534
536
532
541
566
595
586
548
519
518
513
536
564
591
585
594
595
576
554
531
531
548
553
553
547
543
530
513
520
534
536
536
537
533
525
533
537
548
540
542
539
540
573
592
586
570
572
608
634
592
557
543
564
567
572
574
564
558
556
573
582
594
614
619
603
597
595
579
583
560
551
562
562
560
553
548
543
543
552
552
544
550
529
528
532
518
513
518
519
510
496
490
498
524
543
532
503
482
474
471
495
521
532
543
525
482
439
422
443
478
500
505
521
577
677
824
955
1023
1023
1023
1023
1023
1023
969
828
734
637
530
475
461
470
453
418
400
391
400
413
410
401
393
396
408
427
414
406
404
412
421
425
434
459
473
459
440
434
437
447
449
461
477
480
471
466
460
466
496
519
519
510
497
485
490
504
515
513
512
513
511
499
501
516
541
548
553
565
552
529
551
562
538
516
520
541
538
525
526
533
548
562
566
552
543
539
546
557
570
571
572
573
570
563
562
574
583
589
590
577
591
593
576
570
582
609
636
633
587
549
555
580
599
603
587
558
548
540
543
548
576
595
586
568
553
549
549
547
553
553
543
539
535
529
520
522
513
507
506
494
493
493
481
477
512
583
595
552
521
514
486
468
483
502
511
506
502
503
517
521
526
539
540
508
494
498
502
524
532
544
566
544
491
467
464
483
490
512
546
569
568
554
540
540
529
527
536
546
534
522
516
517
531
548
566
557
528
507
519
572
587
560
533
498
496
502
511
516
512
525
529
530
535
536
529
524
539
552
550
545
542
533
520
516
510
504
515
501
498
500
474
489
551
597
558
501
468
451
457
488
502
506
514
516
517
512
502
508
530
528
525
531
546
563
574
558
548
561
568
562
562
570
570
560
582
583
577
562
535
514
520
532
530
520
510
502
494
493
496
507
525
539
548
528
503
483
468
477
465
473
457
440
446
466
491
507
499
491
511
538
529
505
491
480
460
428
406
397
405
430
468
535
626
743
867
992
1023
1023
1023
1023
1023
1023
904
736
599
503
454
430
406
395
388
385
381
367
356
355
367
362
354
367
380
382
378
366
349
340
360
384
399
406
405
411
406
417
418
422
419
424
435
447
461
474
472
463
471
463
447
444
462
482
493
483
480
492
475
462
471
469
460
463
487
494
505
515
498
484
499
517
515
504
508
511
513
524
539
550
553
541
547
563
584
580
540
507
499
493
493
501
515
528
544
534
537
533
520
542
563
584
603
602
582
570
562
561
590
615
606
598
590
592
566
540
535
550
553
553
550
529
518
522
539
544
552
557
541
515
488
464
481
499
519
514
503
483
486
498
513
526
527
515
493
483
480
477
481
493
496
487
469
455
459
478
494
516
524
480
454
463
470
464
473
497
515
543
552
525
495
495
517
517
517
523
515
501
493
480
488
500
500
505
499
493
513
535
545
547
514
521
539
528
499
482
506
537
533
511
503
518
536
539
525
519
521
516
505
515
514
509
509
522
514
503
492
499
511
533
551
559
552
553
534
516
520
533
539
542
531
518
512
509
515
526
530
525
520
525
517
498
496
506
504
511
515
518
512
505
510
508
518
529
523
533
556
549
527
513
508
523
547
553
535
523
532
527
510
512
491
459
454
454
436
420
422
417
408
409
406
403
407
402
410
414
418
397
382
379
385
402
415
404
395
395
400
407
414
409
415
429
427
425
428
413
390
365
338
331
348
357
367
396
439
507
610
748
873
999
1023
1023
1023
1023
1023
986
825
701
601
524
448
396
369
347
342
345
342
340
328
322
348
369
378
371
362
366
371
383
400
412
417
418
418
428
435
429
423
414
427
452
449
439
428
426
458
502
518
502
485
476
463
469
506
517
516
495
492
472
477
486
511
525
522
505
481
479
495
525
562
566
549
530
514
503
511
527
545
550
545
551
551
548
555
549
534
521
543
591
617
594
572
550
530
532
527
532
520
545
568
595
611
595
577
577
580
586
591
585
580
583
614
620
611
591
601
650
649
611
590
581
566
558
546
524
516
520
519
530
543
535
532
534
537
538
537
528
524
505
484
490
503
509
521
535
525
534
535
500
490
485
491
491
483
482
488
485
498
507
503
492
492
507
510
519
523
517
525
543
547
526
520
525
519
536
560
570
545
507
488
480
490
505
519
524
525
519
525
531
533
552
569
558
532
522
521
529
540
539
535
536
544
539
523
525
539
546
547
542
521
515
498
491
491
504
505
496
493
507
526
536
548
542
535
541
543
526
525
527
528
544
558
555
539
517
517
547
562
564
540
513
499
495
488
491
508
531
531
515
510
527
541
548
555
559
565
565
556
550
545
562
564
561
549
549
557
578
603
606
594
574
568
564
556
561
563
554
547
538
530
516
505
493
479
474
490
523
534
524
513
507
504
512
528
546
557
563
557
496
451
435
453
477
504
527
534
511
481
475
496
508
501
495
476
438
412
405
407
428
484
537
580
650
763
900
1023
1023
1023
1023
1023
1023
1016
919
802
661
543
460
399
361
365
366
371
384
386
394
379
364
358
372
377
390
407
410
384
350
342
355
389
420
443
456
430
410
409
405
394
412
416
443
459
452
436
455
465
488
498
480
469
459
456
457
455
457
465
474
478
491
483
481
479
462
448
451
466
490
509
518
520
528
540
525
508
505
504
508
518
527
543
552
561
542
523
521
519
526
530
518
503
512
526
544
557
570
576
585
576
527
526
539
553
541
531
541
552
540
513
500
525
556
563
551
550
553
543
532
541
532
527
532
534
527
524
535
551
539
527
511
508
500
471
464
471
476
472
481
487
471
461
455
452
464
469
448
434
438
447
464
472
480
476
473
468
451
450
454
470
493
496
489
474
482
503
497
484
479
487
508
518
507
498
472
464
464
477
481
491
488
489
504
507
505
497
492
502
513
502
498
496
510
528
534
531
531
538
533
517
535
528
492
467
447
452
479
502
507
507
497
493
499
499
499
514
533
535
516
502
488
482
491
501
508
501
496
506
507
501
497
504
521
531
541
543
528
506
514
512
512
513
508
494
482
490
501
508
511
504
489
487
492
495
505
527
542
532
539
551
510
494
532
551
545
541
528
514
530
546
562
575
583
574
571
551
531
518
502
496
494
503
508
487
459
450
454
479
494
477
469
477
475
466
470
478
494
513
502
485
470
459
463
476
484
496
489
471
483
502
500
509
501
480
474
463
416
368
345
352
386
419
460
510
588
695
812
920
1023
1023
1023
1023
1023
1023
902
750
636
549
489
444
399
372
348
339
354
363
367
370
358
334
318
312
353
369
369
371
362
365
391
399
399
413
426
433
404
392
402
419
433
429
416
422
425
421
422
432
451
452
451
453
454
451
451
444
442
439
448
456
470
477
476
479
465
470
476
469
478
490
489
497
510
512
514
494
474
472
486
498
515
516
489
469
490
488
471
485
497
491
494
502
510
532
525
513
518
529
541
541
538
547
550
543
554
561
544
535
549
565
564
547
547
548
541
547
549
535
519
516
507
518
536
531
522
518
506
497
498
503
513
514
484
441
439
453
448
445
445
449
451
448
437
439
467
472
458
454
454
447
440
432
443
440
439
453
448
439
432
439
458
478
476
460
458
465
452
456
458
448
454
457
454
451
450
458
474
472
475
495
495
466
453
465
485
497
501
478
461
458
461
469
469
473
471
474
468
462
465
495
508
481
451
443
433
431
417
414
430
455
450
455
475
492
489
489
479
479
484
479
498
489
465
446
458
469
464
464
476
471
481
491
492
477
479
494
486
466
463
461
466
477
472
457
451
459
475
496
494
491
500
500
493
475
468
478
467
472
491
496
512
519
514
520
527
525
521
516
525
531
547
558
552
554
559
553
543
526
503
508
509
500
522
538
514
465
464
461
444
456
482
485
477
471
469
479
506
516
510
489
481
481
477
481
491
497
486
463
458
462
470
474
488
492
511
537
532
473
416
385
373
387
405
417
435
496
582
683
785
889
1014
1023
1023
1023
1023
1023
919
773
641
536
467
425
400
390
378
355
336
338
343
346
358
379
390
384
367
366
364
363
373
380
380
387
399
414
414
420
428
456
453
431
425
427
423
424
433
436
452
473
478
478
467
458
452
455
451
451
463
483
480
459
459
477
497
526
516
496
495
488
470
468
485
485
493
524
524
499
494
506
524
537
533
525
506
484
493
516
532
539
531
537
529
534
533
530
530
535
538
531
531
545
562
580
585
582
576
580
593
586
563
568
568
549
533
542
557
559
552
551
556
570
571
560
547
540
533
512
505
512
499
491
488
479
471
474
487
489
488
491
476
467
469
485
506
488
467
447
441
447
452
453
466
488
508
505
485
466
469
452
447
466
487
483
476
476
483
484
493
510
518
515
514
505
494
491
500
505
527
524
507
489
488
493
516
513
495
501
508
488
492
509
530
537
532
522
508
501
501
511
522
519
516
512
506
495
517
541
519
507
513
525
513
514
525
513
505
515
520
495
483
481
479
491
515
521
521
517
522
511
508
514
518
529
531
525
534
516
488
503
516
525
534
537
533
531
517
501
508
520
540
528
506
514
526
523
520
520
515
514
534
537
528
526
538
576
611
595
552
531
531
548
560
582
586
572
567
562
548
535
513
483
485
525
532
517
509
496
498
497
489
494
501
484
488
498
520
525
513
514
496
483
480
486
488
492
489
495
502
503
512
508
500
521
538
522
511
494
480
474
445
409
411
433
466
485
539
617
715
823
939
1023
1023
1023
1023
1023
1023
927
779
665
574
502
455
426
407
379
369
378
371
358
357
364
390
405
421
409
388
380
383
388
392
382
384
413
437
441
422
417
423
430
458
459
450
438
423
423
444
468
487
482
459
442
448
469
505
519
510
505
485
466
468
481
494
516
535
513
467
451
454
470
493
513
523
522
515
489
473
485
504
527
539
540
532
520
504
516
536
561
568
566
543
546
545
539
536
539
550
550
542
536
549
551
556
567
569
566
566
556
554
538
537
569
587
578
564
566
575
577
570
559
567
560
562
544
530
518
528
555
543
526
507
469
459
457
463
469
469
470
471
463
457
449
458
488
486
466
459
449
443
455
473
501
501
473
453
460
463
464
469
487
500
487
460
450
462
493
488
477
472
466
472
464
467
489
497
492
493
520
528
496
493
492
479
461
452
470
484
495
496
491
514
533
529
505
478
474
504
523
533
526
523
536
531
507
480
469
490
487
499
511
491
477
480
502
533
541
533
491
455
465
488
504
505
512
524
534
537
525
503
498
501
518
521
515
515
502
516
496
484
504
500
482
480
499
510
507
522
521
509
505
498
505
509
483
486
513
516
516
521
527
523
528
515
520
519
513
510
499
489
509
549
570
555
547
551
521
499
514
544
576
608
615
594
574
534
506
504
521
533
523
508
507
495
487
497
499
493
498
514
494
477
479
478
486
485
476
472
462
459
468
470
458
454
465
466
468
493
495
477
485
513
514
519
504
485
475
473
459
434
435
430
420
448
506
575
655
763
881
982
1023
1023
1023
1023
1023
1023
938
794
665
553
485
446
421
399
380
357
345
337
343
347
354
348
336
336
346
344
338
348
374
399
403
398
384
372
376
383
397
398
404
426
426
419
426
429
420
426
439
447
436
432
438
446
471
482
467
461
457
434
434
438
445
448
457
461
460
467
474
476
464
475
482
488
486
478
479
493
503
498
492
500
499
501
509
520
530
525
519
516
499
496
498
516
534
533
526
519
509
520
537
536
537
546
551
562
564
552
557
573
584
576
561
560
549
533
524
539
556
564
563
557
540
524
528
519
507
505
498
505
493
468
449
443
452
486
497
485
483
489
477
479
471
462
438
423
423
424
442
469
480
480
458
457
455
450
442
426
448
463
452
449
460
466
471
469
482
475
466
460
486
494
474
469
478
483
466
459
453
462
473
478
494
515
491
469
479
470
456
465
485
487
504
518
498
471
467
492
494
490
493
499
502
504
502
502
515
524
513
493
477
486
489
508
523
508
476
450
454
487
487
457
454
470
487
484
472
464
477
494
495
493
496
496
487
466
445
456
475
469
458
460
470
462
451
446
452
471
451
432
425
439
443
453
450
451
456
461
453
444
452
463
471
479
486
488
480
469
473
503
527
515
503
507
494
480
476
524
560
580
565
542
532
533
542
556
558
543
528
499
476
472
498
521
519
499
492
481
459
462
474
482
488
502
511
505
494
473
471
507
518
495
472
452
439
457
475
480
480
491
498
505
504
496
497
497
504
518
478
430
393
373
377
395
434
488
563
656
742
844
980
1023
1023
1023
1023
1023
1023
899
752
636
539
477
439
401
369
351
355
362
346
339
329
324
312
306
309
314
332
347
352
351
352
362
374
401
401
372
373
365
359
348
357
397
424
426
407
397
389
391
409
424
419
419
431
441
438
439
439
442
453
475
463
450
437
442
452
460
474
477
478
478
479
490
488
492
496
509
521
542
543
503
485
499
502
509
511
506
506
508
515
525
535
546
547
540
526
519
512
525
549
565
562
576
571
527
521
523
537
574
593
577
577
548
526
548
571
584
582
571
559
554
567
561
557
560
564
552
514
494
497
524
511
513
508
491
491
496
482
475
467
471
479
474
464
465
476
488
490
501
502
490
486
478
468
477
478
481
488
493
496
478
461
469
492
512
522
530
542
527
513
525
518
514
499
478
471
480
488
497
506
513
495
482
499
505
503
493
504
527
546
548
533
517
509
521
520
510
533
548
518
498
519
539
544
526
517
499
493
503
509
528
543
542
526
510
504
495
493
489
529
555
545
517
503
519
526
517
521
520
519
526
529
524
516
511
518
523
527
523
511
494
487
507
548
551
527
509
512
516
525
520
519
518
530
533
524
506
498
512
529
527
526
523
512
514
535
546
538
524
535
528
510
503
505
524
545
549
537
529
525
543
578
576
568
581
581
572
563
559
569
580
567
556
553
541
526
524
516
505
488
495
490
489
493
500
515
545
550
524
496
487
490
486
482
499
509
518
492
474
471
483
500
505
506
512
522
510
490
484
484
473
479
494
482
445
412
399
409
444
478
507
572
678
788
905
1023
1023
1023
1023
1023
1023
1023
938
774
662
583
509
447
416
398
386
390
392
387
379
358
356
356
347
351
364
383
376
383
387
393
399
409
425
428
427
437
442
444
426
421
432
449
463
478
467
460
446
437
460
492
514
518
498
473
468
493
506
501
518
527
544
539
508
498
519
548
545
528
509
500
512
526
532
531
540
544
540
536
531
537
548
563
566
555
542
538
531
533
539
537
542
547
566
572
564
568
583
587
594
598
608
600
591
587
605
609
605
583
568
577
583
589
594
583
572
580
591
599
577
554
546
548
563
562
544
519
519
526
532
539
552
540
529
522
489
462
457
467
474
489
489
477
481
490
495
498
503
499
501
492
468
464
470
470
471
475
484
474
458
465
487
505
490
482
480
470
457
471
484
487
494
499
498
481
468
464
474
489
519
529
523
509
495
491
496
497
503
514
505
481
467
459
485
517
531
524
516
506
506
508
501
502
505
517
515
498
489
496
507
500
491
479
490
501
484
479
493
497
497
499
501
500
483
468
466
480
477
464
479
488
474
479
490
504
499
467
447
461
468
474
490
497
482
479
481
468
475
496
484
474
465
453
448
473
496
494
480
486
489
489
498
494
487
492
494
505
500
493
504
513
510
515
523
527
536
539
539
533
526
525
533
529
517
514
517
501
487
489
506
505
489
484
490
482
465
453
449
453
474
490
486
470
454
457
478
492
493
478
472
475
469
465
478
496
501
495
488
487
497
500
490
486
495
485
461
420
407
417
438
462
485
548
636
740
864
985
1023
1023
1023
1023
1023
974
820
681
573
502
442
400
376
363
356
341
359
373
388
393
386
377
383
393
390
391
389
380
372
380
386
397
419
425
430
434
424
413
418
415
410
415
423
425
436
443
446
461
476
485
479
474
459
442
443
452
463
476
482
480
475
483
477
470
467
473
472
488
498
485
475
477
481
475
479
509
536
525
503
512
529
534
536
529
502
489
493
494
492
515
542
534
523
528
527
534
531
537
542
544
549
546
546
550
556
566
570
560
564
559
543
541
538
544
557
566
555
540
540
538
529
526
511
492
489
496
496
489
501
515
517
495
464
460
470
474
476
473
464
479
486
466
447
438
451
467
482
489
474
460
443
434
436
445
468
455
445
465
466
469
471
460
478
502
504
496
491
492
502
518
527
520
506
495
488
487
495
509
508
492
477
475
491
503
515
518
513
514
495
484
489
494
500
527
528
509
506
510
495
468
484
526
553
542
519
508
494
496
497
484
477
479
475
473
485
482
482
497
508
495
475
473
478
495
508
510
512
507
492
483
483
468
452
463
485
492
496
487
463
466
492
507
512
514
507
495
490
479
487
512
528
527
527
514
510
505
497
502
502
488
480
496
504
503
502
513
519
520
522
534
527
519
534
556
561
547
532
529
518
509
519
535
538
524
519
512
494
489
487
484
480
489
509
495
480
481
472
471
485
478
468
466
474
469
458
472
492
492
485
479
472
460
475
491
500
503
506
503
477
445
413
405
421
440
465
492
533
602
684
801
933
1023
1023
1023
1023
1023
1023
913
765
644
540
463
421
410
394
376
365
362
352
346
346
352
353
378
387
398
391
367
356
361
380
381
382
405
418
413
414
429
436
432
423
422
426
419
418
419
430
474
483
475
454
415
401
409
440
470
480
481
472
472
458
457
457
456
476
491
476
458
443
437
460
477
490
503
511
505
493
486
491
490
502
503
490
478
471
479
502
512
516
520
520
521
526
521
527
534
541
554
553
531
513
530
556
562
565
564
558
558
560
564
564
559
558
556
558
566
563
552
548
551
556
532
517
513
529
529
528
533
532
528
507
493
479
474
466
447
448
455
449
445
442
434
422
420
435
452
450
433
430
449
466
464
469
473
454
434
442
454
467
471
466
454
448
446
461
468
463
470
472
467
455
442
446
450
454
453
459
464
473
473
476
472
460
457
467
478
489
485
470
467
481
487
498
499
507
508
487
469
478
487
496
508
505
488
488
474
478
497
510
512
487
449
453
471
477
482
493
499
494
474
442
435
461
488
488
479
474
472
481
485
480
488
495
486
481
469
452
449
469
500
508
511
487
467
481
487
489
489
492
492
490
477
484
476
488
514
521
518
498
498
502
506
512
523
526
525
538
543
546
538
531
545
547
543
542
538
521
506
504
506
496
488
474
470
470
473
477
481
474
469
472
475
478
473
469
467
467
468
467
472
469
470
475
476
480
491
478
470
471
478
484
489
500
492
468
442
414
400
395
411
441
479
513
539
600
684
791
907
1018
1023
1023
1023
1023
1018
873
731
621
531
471
435
405
387
380
379
380
367
364
352
334
343
364
385
386
379
360
348
349
361
369
369
367
370
390
411
408
391
384
399
417
437
445
450
446
434
438
436
443
461
466
460
446
444
448
454
468
482
454
426
428
434
443
457
468
463
461
464
459
459
467
475
489
499
493
487
467
459
473
494
517
522
501
485
496
504
506
513
521
521
515
512
506
512
527
537
545
561
573
562
550
522
514
530
542
559
562
545
530
532
542
560
580
578
583
576
551
544
550
543
559
560
553
538
523
501
487
495
506
495
479
475
474
472
470
459
463
473
469
468
466
457
460
469
469
478
476
455
449
464
476
476
486
489
490
468
462
460
467
470
466
469
460
460
465
465
464
479
474
480
491
485
477
475
482
492
484
468
497
497
475
468
472
497
498
483
491
495
504
516
513
516
524
511
485
463
447
451
470
501
522
527
518
489
483
481
488
494
497
495
496
503
489
499
512
500
481
490
518
526
503
502
512
513
499
480
485
506
518
514
498
509
515
496
482
467
470
476
486
502
513
524
526
522
515
493
481
480
495
511
519
513
508
529
551
556
546
537
526
520
521
502
496
510
519
516
530
538
539
538
546
568
584
590
592
581
572
556
549
551
558
550
550
530
507
508
511
485
477
503
526
512
512
496
496
484
456
451
479
498
513
508
504
508
506
497
487
484
488
494
505
518
511
497
500
496
498
509
510
483
459
453
445
446
449
458
471
510
585
679
803
941
1023
1023
1023
1023
1023
1023
956
800
673
572
498
450
432
411
387
357
339
339
371
393
413
399
371
346
333
333
334
338
346
343
356
380
390
395
402
397
397
401
431
447
439
423
407
408
424
449
453
440
430
419
429
450
470
510
523
482
429
401
404
417
438
450
467
472
460
462
458
454
460
457
472
481
475
473
480
479
482
494
504
496
482
485
496
498
498
513
533
543
518
516
536
529
507
505
522
533
541
540
541
546
547
553
555
548
540
542
559
564
564
557
545
543
545
536
536
538
547
561
574
555
524
519
517
531
549
556
547
529
511
497
480
488
497
495
460
436
423
420
442
462
476
481
482
464
439
435
440
455
472
479
484
474
471
466
477
497
488
476
463
458
453
457
462
473
491
495
493
479
448
451
463
474
483
484
483
487
489
471
464
461
454
482
510
513
500
494
486
488
491
495
500
495
493
482
466
473
491
505
509
514
523
520
509
519
522
517
508
496
494
498
498
499
521
544
529
507
496
489
486
489
502
501
507
492
475
479
480
498
506
509
517
517
504
488
503
518
517
524
519
516
508
501
494
489
484
483
498
517
540
545
516
510
517
524
524
511
506
503
501
502
511
521
542
538
524
511
515
523
536
551
540
519
532
547
562
562
586
606
600
578
564
554
548
556
562
545
528
513
501
510
500
480
476
505
501
477
441
443
469
485
489
485
481
460
448
450
458
466
473
485
487
476
484
490
489
483
479
481
485
472
468
476
491
500
498
466
419
401
389
392
426
488
560
643
744
873
995
1023
1023
1023
1023
1023
1023
904
744
630
551
470
414
387
383
381
366
357
345
336
340
349
351
364
360
345
344
361
383
385
378
367
374
384
386
398
419
426
432
431
417
416
434
454
453
443
442
443
437
436
450
450
449
455
462
458
438
441
469
487
486
476
478
474
461
463
474
484
485
490
502
514
520
512
495
511
510
509
501
485
495
508
536
548
538
538
534
531
537
529
510
495
498
526
555
552
540
517
516
532
555
577
587
575
562
549
559
564
564
570
574
570
565
566
571
575
584
583
572
567
539
535
541
549
549
538
534
526
516
516
510
500
484
474
467
459
445
442
465
494
489
501
500
475
455
448
438
463
490
480
444
438
449
454
478
489
473
477
485
479
479
486
484
500
516
513
508
516
497
476
459
460
482
498
506
498
471
466
492
515
527
537
521
492
483
491
495
497
497
487
496
484
491
496
512
523
520
513
532
540
544
527
510
503
504
513
507
506
501
486
488
509
517
526
527
522
520
514
508
503
504
520
532
533
525
507
503
498
503
518
544
544
536
527
519
518
518
520
515
516
500
500
504
512
507
498
514
538
536
503
488
518
551
552
537
517
499
498
503
513
524
534
540
540
529
525
526
531
539
532
507
504
522
531
549
575
589
599
618
616
586
548
547
577
589
575
554
541
532
515
506
513
516
516
513
497
481
478
480
470
480
520
528
498
475
463
443
442
471
470
482
502
515
519
504
516
511
507
495
499
498
487
485
501
518
515
493
456
426
414
431
455
478
513
569
674
801
935
1023
1023
1023
1023
1023
1023
997
827
674
587
525
479
443
411
389
369
363
371
373
364
362
342
339
342
338
344
372
375
370
366
381
384
392
405
406
393
404
402
386
384
402
420
442
452
449
441
421
415
437
451
463
469
470
473
462
452
440
426
449
469
466
457
456
463
472
465
460
475
499
511
504
488
483
489
502
512
516
521
508
492
491
502
522
528
525
522
500
498
512
521
540
555
565
559
552
543
537
527
522
543
555
551
540
542
564
580
596
608
595
559
537
539
543
556
582
580
563
561
564
566
555
531
522
522
531
537
536
535
531
539
526
516
502
489
476
470
465
467
471
477
481
471
460
445
441
465
481
479
478
480
478
470
454
459
467
476
482
475
476
479
484
493
507
496
479
470
464
473
486
502
502
503
493
478
485
497
503
524
534
521
512
503
507
512
497
519
534
526
509
519
514
502
500
503
498
508
512
507
489
459
464
489
514
516
505
507
509
512
519
522
529
520
505
495
493
495
486
493
487
495
526
541
542
528
501
501
519
527
514
503
497
490
492
498
512
527
528
517
521
505
500
519
544
539
503
481
488
493
485
494
515
506
498
493
491
495
503
525
532
530
518
499
484
489
508
522
538
526
525
526
518
510
504
520
540
545
559
573
571
560
544
545
555
568
573
584
587
563
565
572
553
541
546
529
502
493
499
501
503
506
512
503
471
456
462
469
485
499
496
478
480
487
487
496
515
528
527
518
481
468
466
475
493
504
495
475
461
470
478
475
484
475
464
450
415
403
426
465
491
543
622
720
833
957
1023
1023
1023
1023
1023
1023
920
760
647
557
477
413
382
373
359
330
321
342
351
363
347
335
331
353
378
388
371
360
364
367
358
352
357
377
397
414
422
413
387
386
395
404
414
418
421
430
453
455
461
449
447
450
460
453
454
453
439
438
460
480
491
484
492
493
473
472
489
511
513
516
491
471
472
493
492
488
492
502
501
509
516
520
522
530
520
514
520
525
513
510
518
526
540
537
527
519
529
556
571
590
596
585
565
551
545
549
552
546
575
589
566
547
539
559
591
592
586
579
560
550
548
541
539
546
530
502
494
493
497
514
530
526
515
504
495
509
516
509
497
483
482
480
468
450
450
466
467
473
481
468
458
455
456
465
498
487
461
447
459
481
481
487
499
494
473
462
472
490
496
503
518
530
531
506
474
461
470
496
513
504
500
490
473
476
500
508
521
526
518
515
509
486
488
505
526
532
534
531
511
484
479
494
512
526
521
496
485
505
516
523
526
529
516
503
496
493
492
501
526
537
516
515
523
513
505
527
542
519
497
492
494
481
478
492
496
490
500
509
508
522
524
518
528
536
537
529
501
486
501
510
512
521
524
512
508
505
505
514
538
536
507
485
492
491
483
491
510
524
521
509
522
553
540
558
572
555
550
561
568
581
600
603
591
563
533
532
533
531
534
535
535
538
527
502
495
492
486
485
490
486
484
475
455
456
468
490
505
512
500
481
469
479
476
484
504
502
504
508
515
515
491
488
492
487
498
497
471
442
427
414
412
414
421
444
488
545
633
739
856
978
1023
1023
1023
1023
1023
1023
903
757
646
543
477
445
433
419
390
371
352
352
353
359
366
362
362
361
357
352
354
362
372
398
414
408
398
396
382
362
374
410
428
427
426
421
432
441
443
448
454
461
464
469
467
458
445
447
470
500
524
507
487
486
489
503
500
496
499
495
491
492
489
490
490
508
516
512
503
501
500
495
506
538
547
531
528
542
554
548
540
534
523
516
515
514
524
547
579
595
586
551
534
529
529
548
576
575
562
548
545
553
554
563
571
578
591
587
569
550
556
536
536
554
553
552
543
532
520
514
530
547
547
516
491
487
475
467
471
487
503
501
471
458
450
449
461
448
443
453
457
454
444
467
485
495
492
482
465
468
467
459
468
487
495
489
485
478
483
508
511
502
476
461
471
482
480
485
489
500
503
508
495
484
491
497
492
504
518
515
498
495
511
533
542
525
507
518
515
507
513
527
531
524
502
483
489
508
514
501
496
496
499
497
508
515
495
487
498
504
497
487
504
522
519
516
522
530
528
528
521
501
491
491
499
502
496
507
524
517
521
524
518
521
526
521
508
497
496
518
528
534
519
487
485
503
501
493
500
495
495
510
527
521
534
543
523
499
505
506
499
492
504
518
535
549
546
531
522
521
543
565
572
566
548
555
563
541
524
555
585
596
581
553
530
520
533
548
545
540
532
519
491
467
460
468
470
497
512
502
498
492
490
499
510
496
477
479
471
472
485
503
535
544
528
516
508
491
505
522
504
496
505
501
469
436
432
433
430
467
515
536
581
655
777
918
1023
1023
1023
1023
1023
1023
1013
861
732
632
557
478
422
380
353
351
345
351
384
386
359
361
365
363
359
372
384
387
382
380
377
380
405
421
428
422
425
415
408
410
421
443
457
447
423
414
424
455
475
472
460
468
462
435
423
438
472
491
497
492
479
456
456
459
481
493
490
487
488
476
473
479
477
487
501
512
514
506
489
499
507
507
498
508
519
533
533
524
529
527
514
509
516
526
543
552
557
572
561
539
521
524
536
549
555
550
544
534
536
530
536
527
527
549
560
568
554
535
542
554
542
523
492
494
503
516
515
499
494
489
479
478
486
487
470
457
444
444
452
453
465
471
467
460
472
457
434
438
432
422
428
436
440
448
451
449
448
446
453
460
479
487
478
478
474
454
451
468
472
467
472
456
443
439
440
444
470
482
472
465
462
458
483
504
507
511
510
504
496
490
492
491
481
488
501
507
488
474
495
503
501
503
492
476
467
450
451
466
468
472
476
477
481
484
490
492
491
501
505
502
488
472
485
500
495
501
510
509
493
481
483
494
505
499
499
496
481
470
465
471
472
484
499
515
515
511
513
506
509
516
526
516
502
487
482
468
465
483
498
505
501
499
491
494
504
515
513
498
483
498
524
515
516
531
540
543
535
544
558
559
555
561
559
536
524
514
493
480
485
499
498
490
479
475
487
493
485
475
466
462
452
433
424
439
458
472
475
473
474
468
471
476
469
458
464
465
453
446
458
465
469
473
468
457
448
444
432
412
397
387
393
406
423
461
543
639
742
864
978
1023
1023
1023
1023
1023
969
816
677
557
466
411
396
388
363
353
358
355
350
339
336
341
348
359
369
370
359
355
367
377
401
414
408
395
376
372
380
392
403
435
435
424
419
422
424
423
431
439
453
458
457
431
415
419
434
446
454
450
440
449
464
465
454
461
485
495
482
452
439
443
452
451
463
454
451
463
462
469
483
504
514
508
486
472
467
470
475
476
495
517
505
501
504
506
521
538
550
545
541
527
513
514
535
544
541
527
511
519
545
559
564
560
556
539
531
521
536
544
533
534
541
521
504
502
518
512
506
501
499
490
478
460
445
456
472
479
479
463
441
420
415
430
428
414
424
424
428
423
431
447
450
442
450
452
458
448
439
448
468
473
458
426
437
470
463
455
470
465
458
456
470
485
486
485
486
487
483
471
460
457
463
474
480
485
484
479
476
487
490
502
515
504
502
496
491
474
470
486
498
511
517
515
508
475
466
478
492
490
497
500
499
490
476
486
491
493
518
523
494
477
478
482
489
493
499
515
520
514
525
525
522
521
514
497
496
506
510
506
504
504
493
505
493
484
496
497
498
518
514
493
478
489
506
528
524
504
504
522
534
525
514
515
521
521
522
516
519
528
524
521
519
532
544
543
542
535
535
546
560
556
554
563
563
555
544
536
547
557
549
544
546
539
526
506
493
495
501
495
486
488
497
484
482
502
514
488
469
455
462
484
507
518
512
506
509
505
489
471
473
483
498
493
487
483
480
500
515
487
454
431
416
420
451
499
551
608
693
804
910
1007
1023
1023
1023
1023
1023
960
804
656
540
464
432
420
405
383
368
370
361
363
374
380
382
378
378
371
375
380
387
402
416
412
398
385
388
407
423
438
449
443
445
454
452
452
454
446
431
439
443
430
420
455
493
493
465
451
458
471
480
485
486
481
471
459
462
461
450
456
476
495
499
490
491
501
499
501
497
490
499
491
492
497
504
514
513
509
531
541
527
520
521
545
581
593
581
555
522
507
526
543
552
561
547
536
535
533
535
543
545
535
539
562
563
564
560
561
573
561
544
535
539
535
531
529
544
554
545
520
505
494
495
505
517
503
474
468
460
463
483
489
474
465
465
450
438
434
447
462
471
462
456
455
440
418
423
457
493
500
483
467
454
458
463
469
473
463
467
460
451
453
448
459
479
480
475
482
471
464
477
498
496
493
495
497
488
476
461
482
506
509
503
488
477
480
489
492
506
526
539
532
511
477
455
463
505
533
528
525
528
533
529
513
524
532
525
513
493
499
508
505
517
538
561
556
529
503
498
499
515
528
517
512
510
496
489
512
533
548
545
532
517
510
518
513
505
502
513
516
504
507
505
510
516
515
531
528
511
509
527
535
528
533
542
531
519
521
514
513
512
528
539
542
530
526
536
549
568
574
577
582
567
548
552
561
575
571
550
541
540
523
512
514
523
527
532
506
468
465
481
508
520
512
497
486
479
491
509
526
524
508
492
502
508
497
482
495
527
525
494
467
470
476
488
509
518
514
501
486
476
463
450
469
497
522
526
520
563
645
750
872
995
1023
1023
1023
1023
1023
990
836
710
625
543
472
422
384
367
352
355
353
358
364
382
393
393
372
372
386
386
362
354
370
390
402
397
396
396
394
408
408
410
409
402
399
408
415
419
412
429
434
450
467
466
454
460
468
472
470
464
461
470
496
506
480
467
478
494
502
492
483
460
459
465
473
476
496
503
488
494
492
500
520
539
535
526
517
505
505
522
544
544
544
543
521
497
518
551
560
559
567
565
570
558
535
526
523
531
555
564
565
573
569
556
563
574
574
564
564
569
554
536
541
548
545
519
502
494
491
498
516
523
519
519
522
516
500
491
497
494
486
477
477
458
448
458
473
488
493
488
479
465
467
461
456
463
470
473
462
465
467
469
472
474
487
483
468
474
487
503
518
506
512
521
520
503
481
480
487
488
496
520
498
465
459
471
482
500
506
503
482
480
479
470
495
519
535
532
515
504
491
497
517
508
505
515
526
538
537
527
521
522
531
520
502
505
507
504
506
508
507
505
495
494
503
519
542
538
536
532
528
516
507
510
513
518
525
521
505
493
484
491
517
541
543
535
520
491
493
512
521
538
549
540
525
503
500
503
510
525
538
541
536
531
513
494
508
520
529
540
530
505
500
502
541
572
558
547
531
526
531
540
550
566
585
587
573
564
553
533
526
554
567
559
546
542
551
544
533
528
513
498
513
513
506
497
497
509
498
484
481
470
466
473
492
505
511
509
506
507
503
498
498
513
517
502
497
489
491
495
496
496
489
496
488
472
457
453
475
521
577
653
746
848
953
1023
1023
1023
1023
1023
987
850
723
634
562
512
474
436
413
395
367
351
360
368
373
388
403
401
387
387
387
385
397
416
420
402
400
411
423
429
423
418
425
435
414
401
440
476
489
485
476
470
459
438
432
431
445
462
467
470
475
472
477
511
522
503
491
487
474
475
486
492
488
483
492
494
483
473
466
485
510
532
534
525
529
521
500
497
522
540
530
529
539
549
556
547
540
545
541
515
512
527
549
573
580
573
559
547
535
525
538
563
568
555
545
556
560
542
549
547
553
568
560
541
527
527
548
558
539
515
508
499
487
473
475
488
485
480
505
529
510
485
478
479
478
491
487
472
468
467
470
483
483
470
457
450
437
450
447
449
471
488
486
483
485
502
497
479
471
470
469
469
478
494
492
482
488
491
484
497
502
495
501
496
496
497
475
465
474
486
494
493
497
494
496
499
500
505
508
502
504
510
508
501
480
462
478
508
507
512
513
516
494
482
490
509
510
507
510
516
507
498
503
514
518
528
513
494
487
494
513
533
532
506
485
471
470
472
495
521
520
507
495
471
479
502
513
519
521
527
507
500
500
486
492
498
501
504
489
474
475
475
496
513
516
527
536
519
514
503
493
493
507
510
509
523
530
538
534
539
536
514
521
532
517
515
522
539
550
559
563
562
561
563
580
593
592
587
579
568
564
575
574
554
534
516
524
530
521
496
498
501
512
528
519
487
478
490
513
518
501
496
499
506
514
515
515
517
512
496
487
483
486
504
516
510
501
508
504
486
449
426
442
442
453
463
469
498
533
621
741
857
966
1023
1023
1023
1023
1023
1007
871
734
612
513
445
415
401
395
382
373
355
352
342
338
326
321
343
377
384
382
387
389
383
383
391
402
406
409
408
384
370
371
391
407
415
421
412
419
426
414
400
394
408
427
430
425
427
440
463
470
461
449
450
451
467
470
467
458
455
461
466
478
484
488
461
449
475
487
478
468
482
505
513
507
490
466
462
468
495
526
538
537
524
513
516
527
539
548
536
524
524
525
531
538
551
565
562
559
561
558
548
536
521
532
554
556
542
549
561
565
558
543
532
538
543
526
517
523
528
533
538
541
516
496
492
488
489
490
492
476
452
447
455
459
461
455
456
474
482
490
482
465
465
463
464
491
501
479
465
463
456
462
459
466
464
456
459
462
478
492
497
501
510
500
489
466
463
489
511
512
494
493
497
491
488
497
504
496
514
518
494
472
468
487
503
498
495
495
497
501
494
490
502
525
520
506
496
494
498
515
519
510
506
499
484
477
489
507
510
500
499
505
518
525
515
527
542
534
525
523
516
514
511
500
504
531
526
504
499
508
524
519
503
512
514
509
516
526
519
499
494
488
492
506
523
527
532
535
537
530
517
503
512
510
491
492
513
509
502
496
504
509
501
513
521
519
514
505
505
505
502
499
505
525
540
534
524
523
513
509
524
533
550
572
571
548
541
544
535
527
563
572
542
534
540
529
523
524
511
494
488
496
499
505
507
508
493
482
481
470
459
477
499
518
524
512
501
506
488
476
476
477
480
469
460
466
486
510
521
510
499
486
476
476
486
500
476
452
428
421
439
462
486
511
553
640
756
866
972
1023
1023
1023
1023
1023
983
823
699
606
520
446
404
385
378
376
364
351
348
340
347
374
388
397
389
387
381
364
352
362
375
383
384
388
395
410
423
421
419
402
388
389
397
410
412
413
434
441
442
436
440
453
460
459
464
482
504
492
437
419
445
461
468
481
487
466
450
448
451
466
477
486
495
481
475
468
457
469
499
499
482
493
514
519
523
520
520
532
556
542
503
505
532
552
551
533
525
530
541
551
551
545
542
544
539
521
519
535
562
571
566
543
527
527
543
561
579
577
562
550
543
536
531
526
525
528
537
541
530
519
500
487
485
489
489
471
457
464
481
483
484
476
476
481
466
446
435
440
432
425
439
461
474
471
466
476
501
500
477
468
475
492
503
497
485
481
483
483
470
453
445
457
486
507
511
497
489
485
484
484
474
471
486
499
502
475
463
480
504
533
527
512
500
485
488
500
513
508
493
487
478
465
474
494
515
526
526
523
519
508
493
486
485
497
503
502
499
487
491
494
505
508
503
510
501
490
484
499
507
522
522
511
506
507
516
530
544
536
516
508
500
497
490
496
515
517
513
500
491
496
491
488
490
517
531
517
511
518
507
501
509
533
540
533
515
509
513
525
521
518
522
520
518
502
492
503
501
505
530
532
516
501
502
506
503
513
520
535
529
513
505
520
563
590
590
593
592
580
577
572
567
566
549
526
506
498
487
486
485
491
502
496
485
488
487
480
489
500
498
484
472
469
464
465
487
509
531
527
496
473
458
453
475
495
503
492
482
476
488
491
495
479
443
409
386
383
413
446
481
548
632
737
837
936
1023
1023
1023
1023
1023
1023
870
703
585
522
474
413
386
369
347
327
323
327
338
345
333
344
357
339
349
372
391
409
411
403
384
388
396
393
402
396
384
406
422
418
432
426
426
445
444
428
430
442
437
427
446
452
445
432
426
432
433
427
429
449
463
465
466
471
476
482
498
513
498
502
513
520
499
482
480
480
488
494
504
509
498
503
525
531
521
506
504
513
521
524
510
494
505
527
533
509
519
541
555
553
554
549
545
551
538
534
538
545
562
567
554
540
543
549
554
550
531
536
544
544
548
564
571
539
507
484
482
494
512
515
498
507
507
496
488
465
451
461
476
472
460
450
446
439
441
455
478
489
491
481
477
471
453
454
460
451
443
455
468
459
466
485
480
473
463
460
469
482
481
477
482
479
484
487
481
474
458
469
489
490
487
489
486
486
491
490
497
507
500
488
485
497
502
506
504
508
505
480
474
496
504
504
504
490
495
494
496
511
504
499
496
504
529
523
495
493
497
488
487
501
498
489
492
487
485
492
503
511
528
535
540
520
499
507
528
540
532
527
522
501
481
488
504
502
499
497
503
503
512
536
539
536
534
515
488
487
491
503
532
563
559
521
480
476
495
525
540
543
533
519
504
507
518
526
516
531
539
529
519
523
525
528
528
542
547
547
544
540
548
574
597
602
606
590
572
568
575
586
579
569
568
558
545
531
513
529
553
546
516
496
478
478
490
514
528
527
508
496
488
483
497
518
531
533
520
510
507
503
494
503
511
526
531
522
528
526
514
501
480
450
439
429
416
445
486
534
613
709
812
918
1023
1023
1023
1023
1023
1023
999
844
698
593
511
463
434
405
371
355
339
328
336
341
355
373
388
394
390
375
388
411
427
404
386
388
394
386
381
402
415
426
435
435
426
414
419
439
463
464
451
446
434
422
428
445
463
478
475
481
471
454
453
458
470
483
478
470
483
489
479
475
483
485
486
493
495
506
501
507
517
513
500
495
506
509
508
521
528
535
539
527
531
528
527
529
529
540
538
552
557
555
562
568
577
564
557
543
526
533
546
546
558
577
584
577
563
556
559
573
579
575
566
549
535
520
530
539
531
532
542
551
536
498
470
476
499
498
486
480
467
455
453
459
462
470
480
487
484
457
445
447
451
466
474
471
456
450
453
445
446
465
485
503
495
458
446
456
466
464
465
481
488
482
483
482
474
484
498
498
474
447
447
470
488
506
515
506
503
514
499
484
490
501
502
499
495
494
502
515
518
501
495
503
486
477
477
494
508
504
505
503
496
490
481
479
482
489
508
515
493
460
461
495
531
545
540
527
516
484
463
464
480
509
526
514
501
483
464
472
491
505
496
498
492
491
494
502
503
493
468
475
480
481
494
505
510
511
505
489
485
489
497
511
520
518
509
506
488
484
496
497
490
486
492
500
486
476
496
518
523
532
537
534
531
540
528
533
558
573
570
558
537
530
526
540
546
531
514
498
477
466
478
487
500
499
491
484
474
458
453
464
478
478
485
498
492
473
462
470
471
473
474
460
460
477
492
489
493
499
491
480
456
443
458
456
428
407
403
398
403
424
472
549
658
775
905
1023
1023
1023
1023
1023
1023
1023
856
694
572
492
449
418
396
389
370
353
336
321
321
333
355
374
371
364
368
361
356
372
383
392
400
386
382
387
394
417
430
427
462
466
432
398
411
420
429
445
445
446
443
442
439
428
444
461
471
482
481
465
457
466
475
467
475
484
479
477
484
490
490
498
502
500
490
492
498
490
498
514
534
540
520
511
523
531
538
554
559
531
513
521
526
517
519
541
554
546
530
524
522
535
548
558
568
571
566
563
567
558
550
555
564
556
546
540
552
568
579
582
583
578
557
555
567
550
523
510
504
495
502
513
503
504
517
505
485
463
452
458
445
446
463
473
475
462
452
460
454
451
459
470
478
485
477
473
471
468
496
510
500
480
460
446
443
456
467
470
477
480
492
495
486
506
518
506
495
485
486
477
462
462
475
500
512
512
492
489
498
503
505
509
499
499
494
493
493
495
495
500
494
493
494
482
484
500
519
522
507
494
493
486
489
498
503
501
491
485
499
504
500
489
500
514
502
494
495
500
488
491
497
504
508
517
527
507
486
480
481
491
499
503
508
496
487
495
514
513
514
507
492
472
478
484
472
486
512
517
514
508
493
493
497
504
502
494
501
506
496
500
524
531
529
522
512
500
515
533
533
532
545
540
533
547
563
582
599
595
566
533
513
512
536
541
534
532
520
504
492
471
458
473
500
503
492
474
472
499
506
494
495
490
492
480
466
468
467
481
497
500
484
472
459
469
492
494
494
489
484
476
456
413
391
399
411
436
480
518
572
667
788
899
1018
1023
1023
1023
1023
1023
999
843
712
597
524
476
416
365
336
336
341
338
326
333
348
363
375
380
372
366
365
359
352
341
354
381
396
416
421
404
389
389
401
415
433
445
448
429
400
386
407
432
442
435
437
447
449
448
448
451
469
472
468
460
452
458
468
487
496
501
498
491
499
507
499
486
471
462
467
481
497
497
505
514
522
513
503
491
484
480
484
491
495
516
530
528
523
523
520
523
542
573
581
567
562
547
539
557
564
562
552
543
546
543
550
565
566
556
549
537
517
510
521
533
548
547
541
533
513
498
513
517
513
513
515
501
493
495
485
471
473
479
474
465
436
428
439
459
470
455
445
456
475
477
475
487
486
481
482
477
465
455
459
471
466
464
472
497
499
481
479
478
474
480
473
476
485
487
483
485
489
506
506
486
484
487
490
489
493
504
509
512
514
493
470
474
494
531
535
530
519
496
480
484
495
507
526
527
510
495
487
501
509
508
513
504
499
506
507
502
505
510
500
484
477
471
489
519
522
516
517
501
483
482
487
505
498
487
497
491
494
511
526
528
523
516
495
484
492
495
488
495
516
539
537
516
504
492
493
500
506
504
497
502
514
506
491
487
498
495
494
519
530
523
520
542
548
540
552
533
529
550
553
541
555
573
588
574
553
542
536
531
536
529
510
495
482
475
492
490
484
489
474
455
449
451
470
495
505
509
505
482
460
463
483
491
498
520
512
487
478
470
474
484
499
511
510
493
474
466
457
427
401
398
432
466
489
525
600
697
824
949
1023
1023
1023
1023
1023
1023
935
799
674
567
497
450
419
398
372
344
343
352
353
358
356
350
352
352
344
352
354
356
372
390
399
385
377
398
398
384
399
428
438
451
447
441
437
425
415
431
444
454
462
471
460
443
436
435
453
471
474
467
472
468
471
484
501
509
501
484
462
456
468
486
499
514
519
500
495
490
492
499
514
526
523
533
542
504
499
513
522
534
534
532
523
519
523
521
545
571
561
551
535
532
550
563
560
553
541
539
549
543
555
553
543
558
584
595
598
583
550
536
544
543
522
512
521
546
546
548
543
532
525
515
502
483
481
500
501
470
449
448
462
478
496
504
506
485
470
467
475
482
471
474
475
478
466
440
436
444
450
462
483
496
491
483
478
469
476
478
490
504
502
492
495
489
476
492
519
535
506
483
482
495
505
508
507
506
496
497
501
492
486
502
505
510
514
508
495
503
519
506
487
489
494
501
507
533
547
531
513
503
504
510
503
493
499
517
520
524
515
493
482
480
492
495
492
512
519
495
479
486
491
502
513
528
536
527
516
509
493
509
539
538
530
519
516
531
540
529
525
519
498
483
492
504
497
495
493
510
521
515
500
492
501
527
548
547
537
525
510
504
517
532
553
547
537
552
554
553
559
573
581
582
570
564
568
556
544
536
533
528
520
520
522
503
493
496
499
497
485
464
459
467
483
480
482
497
497
480
481
482
487
485
487
495
513
518
501
492
490
481
491
499
502
490
473
480
493
468
430
416
411
416
456
503
560
634
731
858
997
1023
1023
1023
1023
1023
1023
896
743
645
568
483
420
402
402
397
372
353
349
337
325
304
310
357
387
376
364
376
381
389
401
406
426
436
415
398
391
401
432
436
442
444
435
433
421
410
408
413
422
441
460
456
453
459
470
478
469
478
483
479
489
493
492
496
493
486
463
469
502
510
517
517
515
522
509
488
476
500
519
523
519
516
514
513
495
509
533
547
558
557
548
548
554
563
573
559
543
550
543
546
555
560
569
581
589
577
568
560
561
570
578
579
574
566
557
543
549
566
571
569
566
562
554
540
527
531
534
532
521
512
507
500
494
491
504
516
499
482
481
471
458
457
459
460
464
461
460
466
478
489
500
495
480
478
475
465
448
491
497
476
468
465
450
445
454
478
507
527
516
498
487
481
480
482
478
484
504
502
499
498
502
515
518
523
521
513
521
514
502
492
486
478
470
480
486
480
482
492
495
499
498
499
507
506
492
478
489
506
511
522
524
511
501
502
515
520
514
513
515
507
509
497
491
498
500
504
499
497
500
502
502
514
514
506
513
505
491
513
513
492
500
491
481
486
500
510
529
538
519
509
510
495
483
490
499
506
501
511
517
515
515
528
542
541
521
507
503
499
510
535
561
583
587
585
565
556
561
560
570
580
586
565
539
530
537
533
521
516
522
518
502
486
482
483
479
482
488
496
498
491
490
497
501
511
522
513
496
497
497
513
531
533
527
496
481
484
484
479
481
484
485
475
462
437
423
432
452
480
509
559
655
765
887
1000
1023
1023
1023
1023
1023
974
832
710
603
524
464
411
364
342
337
345
359
364
366
378
370
359
346
341
346
339
359
393
414
414
400
403
417
420
415
406
406
407
401
427
447
446
434
436
454
467
455
459
471
472
467
458
460
454
447
444
454
460
466
468
455
455
455
467
471
474
477
481
494
502
503
497
487
485
481
469
475
485
486
499
503
504
519
533
525
499
486
485
505
542
549
533
520
520
518
535
555
563
561
547
540
536
526
522
523
523
529
528
532
533
541
549
561
572
575
582
576
549
531
527
530
537
532
530
517
502
486
484
489
490
486
496
504
478
461
453
459
475
482
471
451
454
456
446
447
462
471
462
443
437
449
469
479
489
507
490
472
469
440
429
448
461
465
477
480
467
449
440
452
450
464
474
474
460
463
476
490
510
517
496
480
464
463
458
454
453
461
458
459
456
466
481
490
499
515
513
492
479
479
482
485
474
490
499
487
476
477
480
480
490
497
480
474
466
470
487
494
493
483
472
465
472
481
478
476
471
488
504
494
481
485
495
491
487
488
495
493
480
470
474
478
484
488
480
458
462
478
484
477
473
483
492
492
471
464
471
474
475
495
517
524
513
508
503
494
498
496
498
505
507
502
513
531
547
540
529
531
541
546
526
528
526
524
522
503
485
479
478
490
505
503
484
471
469
484
494
500
489
473
483
492
489
480
475
467
457
467
486
476
464
470
493
505
514
512
505
474
459
460
462
463
451
438
433
428
445
474
519
572
620
701
806
920
1023
1023
1023
1023
1023
1023
942
780
652
567
484
423
400
393
381
368
352
348
352
353
366
369
381
398
393
385
392
400
398
396
409
419
413
403
398
406
420
431
433
430
445
455
453
446
448
440
455
469
457
452
473
486
482
466
456
448
438
447
452
464
478
488
494
486
467
451
458
477
493
498
494
487
479
484
503
514
514
519
503
496
496
495
502
511
534
541
524
511
519
533
544
540
549
561
559
559
556
546
558
561
545
547
559
558
551
548
553
559
560
576
570
549
543
559
577
588
572
560
578
581
565
559
554
536
533
527
507
496
489
502
518
517
516
496
466
436
444
467
472
474
489
502
496
484
478
475
464
456
464
460
460
466
469
468
474
479
485
494
494
490
484
484
480
483
490
483
474
466
466
481
481
477
484
507
514
509
503
478
467
477
491
499
494
494
490
489
500
511
518
514
517
511
485
480
496
506
511
497
497
492
482
467
478
494
500
508
511
500
484
480
489
515
516
501
511
521
510
479
478
497
513
512
502
495
477
461
468
488
495
510
524
529
518
500
511
530
522
503
503
501
487
486
493
515
543
556
554
537
531
524
524
525
512
512
512
513
513
519
525
533
542
542
528
521
512
524
540
543
526
526
545
554
555
571
573
578
580
578
570
562
572
567
556
547
542
523
503
489
484
476
469
483
487
485
496
509
512
493
475
472
491
509
510
502
498
503
503
497
503
496
490
482
492
494
510
523
516
511
506
495
480
465
444
428
435
459
468
494
558
640
741
853
977
1023
1023
1023
1023
1023
1023
916
771
665
576
495
439
405
382
378
376
383
388
378
379
388
382
394
406
384
374
380
374
359
359
384
408
422
418
400
395
397
409
432
438
441
435
418
420
448
452
442
453
460
457
454
455
447
455
464
479
480
471
458
461
459
452
462
466
473
481
483
490
513
523
525
520
507
501
500
501
501
501
506
520
518
514
507
492
488
504
528
528
531
547
547
536
532
538
557
567
562
543
514
506
531
572
598
593
584
585
574
574
576
574
572
562
554
549
547
544
539
532
538
535
535
549
540
526
519
517
516
518
519
512
488
463
474
490
497
509
506
497
506
523
516
492
486
487
492
500
482
465
471
468
465
480
499
501
498
500
481
458
455
472
498
508
500
493
485
485
497
505
513
508
486
468
475
484
511
541
533
501
492
501
505
496
503
509
523
526
531
529
509
500
499
504
517
528
510
499
495
509
535
544
529
516
506
502
489
489
513
527
531
518
509
511
519
527
529
524
533
539
534
507
486
488
502
514
517
511
493
485
485
484
501
532
532
504
503
504
512
518
523
517
512
509
500
493
501
512
521
526
529
533
524
502
481
485
490
489
497
492
497
516
515
500
499
491
505
516
515
520
527
536
538
535
533
530
520
517
520
528
548
565
568
574
565
547
528
522
519
512
507
492
486
487
490
494
503
505
493
485
483
463
446
461
485
503
507
497
476
464
458
466
477
488
498
495
483
463
455
463
480
502
496
483
484
482
457
435
419
411
443
472
497
527
589
678
783
892
982
1023
1023
1023
1023
1023
972
826
697
584
503
466
428
402
375
355
352
359
353
343
349
358
357
373
385
384
365
354
361
373
391
412
423
420
415
407
393
393
413
436
442
437
431
408
387
401
424
447
460
466
458
448
441
444
447
453
460
460
452
442
440
456
476
498
505
482
473
468
476
496
494
491
492
493
483
474
483
501
509
509
505
491
497
500
490
496
516
528
538
527
512
516
525
526
527
514
529
543
548
546
539
548
560
560
563
564
568
553
544
548
555
556
559
566
561
549
535
521
524
528
538
558
572
571
546
509
500
511
507
497
501
495
484
483
478
476
475
463
464
469
472
463
447
455
487
509
491
461
468
475
463
456
458
459
448
446
466
481
473
465
477
489
489
487
485
486
496
501
496
489
476
459
454
451
446
460
482
503
499
481
488
504
504
512
512
502
490
477
466
490
521
517
494
474
467
471
484
499
513
515
522
518
511
505
488
469
464
489
504
507
515
503
495
496
499
511
511
496
492
488
496
511
516
507
498
503
502
504
507
514
524
516
501
488
487
488
487
493
506
498
491
502
508
501
493
493
502
510
510
511
512
494
487
509
509
503
512
526
519
493
484
483
497
498
499
497
490
480
480
507
533
535
530
521
506
495
492
508
547
550
550
538
532
536
544
557
572
563
545
521
508
501
517
539
542
529
512
509
511
511
514
502
486
479
466
462
460
449
456
491
515
497
480
491
506
496
480
471
481
503
515
522
509
492
491
495
487
494
500
499
491
478
444
416
412
423
430
456
493
537
596
691
805
925
1023
1023
1023
1023
1023
1023
929
795
678
579
510
462
433
400
383
382
380
370
365
363
364
356
354
366
389
383
374
365
349
361
384
401
414
400
387
390
398
411
416
422
445
452
427
400
396
410
432
439
440
436
432
434
431
422
438
465
481
481
474
483
475
467
475
474
470
490
506
492
475
468
483
495
498
506
508
498
480
472
481
499
505
513
523
534
510
484
485
514
525
523
520
522
517
519
540
556
560
559
541
528
531
553
580
581
571
570
560
547
546
548
545
548
553
539
532
541
538
538
536
548
553
546
544
536
521
517
521
526
510
503
509
494
489
500
490
479
483
479
454
451
469
481
472
455
467
474
475
477
474
467
475
488
498
506
480
460
449
454
467
486
491
489
478
468
470
471
466
468
501
532
531
506
469
454
467
496
507
510
502
489
473
474
487
492
493
490
477
476
475
477
475
492
501
498
484
475
479
477
476
485
505
520
525
512
494
487
504
528
536
518
494
480
484
484
487
512
508
486
487
487
480
483
492
483
498
511
504
506
519
517
520
518
516
505
496
495
498
500
499
498
508
523
523
504
484
483
499
509
506
509
509
504
498
500
501
508
525
539
530
508
487
484
498
520
527
525
535
531
539
544
534
535
524
528
523
500
496
511
519
527
520
515
519
528
537
552
558
556
562
557
555
563
573
579
583
595
592
580
563
547
542
536
530
526
519
519
493
472
477
487
507
545
553
533
503
483
479
473
477
490
502
509
502
495
484
482
483
478
501
521
502
495
490
476
490
509
500
484
475
473
460
433
411
414
446
469
487
509
549
629
747
873
1004
1023
1023
1023
1023
1023
1007
857
726
616
532
478
437
413
389
367
357
375
388
375
369
383
385
394
399
394
390
373
360
364
378
384
409
423
424
416
412
407
415
427
443
452
448
428
412
412
437
471
479
460
448
439
438
453
463
467
476
492
483
463
450
453
469
478
497
504
489
474
475
486
500
507
499
497
500
491
473
455
451
480
505
518
529
520
509
507
519
524
511
500
508
519
514
514
516
529
551
556
551
540
545
568
567
553
555
554
523
495
504
529
556
578
575
570
563
556
544
540
558
544
548
555
554
547
536
526
517
520
531
524
496
458
438
441
464
481
485
483
474
453
455
471
480
489
488
471
459
444
441
444
452
476
498
495
476
457
465
464
461
462
462
470
468
461
453
467
488
486
467
467
472
477
470
468
474
483
482
469
472
488
475
485
499
505
510
504
498
492
494
498
496
491
485
486
490
515
515
498
512
530
514
488
469
462
471
490
504
511
514
497
496
498
486
479
490
503
510
505
494
502
507
495
488
498
503
496
498
503
508
517
514
513
511
535
538
515
500
499
519
530
519
507
499
506
514
521
531
527
513
499
495
517
524
512
493
493
503
495
483
485
501
510
527
533
518
513
519
527
518
510
531
527
515
520
511
506
504
516
537
540
531
533
516
512
534
553
558
568
583
587
579
574
560
542
544
569
580
561
532
503
489
493
508
526
526
503
487
481
487
483
492
505
510
505
484
456
470
476
488
503
500
503
518
511
481
464
466
471
462
460
485
503
515
509
495
493
485
475
465
436
406
380
404
451
464
494
559
650
752
879
1004
1023
1023
1023
1023
1023
983
833
715
625
531
446
379
336
330
359
365
337
330
344
362
368
364
364
375
381
374
383
400
409
406
396
390
394
398
396
391
382
384
391
405
413
422
430
431
413
427
444
448
448
431
434
425
423
448
477
490
474
464
464
458
460
457
461
468
470
481
484
490
491
485
479
485
495
502
505
508
524
523
515
495
487
495
492
483
485
523
527
521
529
538
545
535
530
528
525
534
545
548
554
539
534
547
556
570
566
569
574
577
565
553
563
570
565
554
537
540
548
551
543
541
550
539
543
551
548
530
526
531
530
536
532
515
493
478
467
464
479
500
498
463
437
441
447
459
474
488
482
477
459
437
441
455
465
478
477
475
472
473
502
507
483
470
462
474
480
471
466
475
488
500
501
479
468
468
467
476
484
496
500
503
506
510
514
516
510
504
507
500
494
487
486
500
521
523
518
524
513
492
484
484
476
476
490
521
536
532
510
491
497
507
509
515
511
506
486
486
499
505
525
527
510
502
499
513
512
497
490
495
473
460
474
503
523
515
488
496
511
501
493
514
537
535
525
515
499
475
464
481
506
510
509
492
473
480
494
511
531
539
530
526
507
501
510
512
520
515
510
504
497
499
512
503
503
511
515
518
527
528
542
552
546
545
552
552
539
541
573
591
586
582
574
559
545
531
512
509
516
524
524
500
497
487
489
496
493
480
494
496
471
461
470
491
505
515
522
500
466
458
464
475
493
496
473
476
491
502
510
507
509
521
505
469
441
439
441
429
439
460
495
548
635
744
859
978
1023
1023
1023
1023
1023
1019
876
747
640
549
483
439
395
378
375
367
346
336
349
359
361
363
367
376
384
387
397
399
388
396
401
381
373
370
384
398
407
420
426
435
436
444
447
440
426
418
439
450
451
465
462
451
450
451
449
432
445
486
504
496
474
465
459
470
472
479
497
488
480
474
471
492
510
507
507
507
494
492
495
491
499
500
502
513
528
524
517
514
532
546
539
512
497
503
508
535
569
577
567
550
542
538
543
559
566
564
557
556
551
547
537
544
558
571
574
559
535
524
521
546
553
564
585
576
522
486
486
502
524
508
506
498
486
475
477
475
472
476
488
491
469
456
437
438
463
482
469
459
439
449
470
470
465
452
450
451
470
484
481
477
459
468
491
488
490
496
490
488
496
506
506
494
478
460
443
445
478
512
523
518
514
505
497
491
502
516
502
495
509
501
474
477
508
526
514
493
493
489
468
471
473
476
486
496
520
525
525
513
505
503
503
500
493
495
497
488
489
499
508
500
493
491
490
493
501
509
504
491
486
492
508
499
482
476
493
499
493
495
517
523
521
523
526
542
540
516
492
493
520
529
519
504
505
507
500
489
491
507
516
518
513
501
483
494
505
519
530
529
516
512
520
532
527
535
562
568
573
558
548
564
591
596
599
576
551
542
534
534
539
535
524
510
491
463
455
472
493
477
472
486
475
463
477
487
496
502
506
488
460
441
429
440
487
525
530
512
508
504
497
498
492
501
505
488
461
417
388
389
404
432
469
489
536
623
734
862
981
1023
1023
1023
1023
1023
1023
890
748
642
548
473
413
388
387
376
367
362
357
342
323
323
336
372
407
419
393
361
358
378
386
402
413
411
405
403
413
421
426
421
412
407
403
394
402
417
410
423
446
453
446
454
451
443
433
432
443
470
481
477
458
450
450
444
453
484
500
509
501
483
476
480
489
489
493
493
483
484
486
497
502
504
501
486
503
514
503
506
519
526
525
526
528
521
502
492
509
531
538
528
508
523
539
549
563
567
563
553
554
550
546
545
548
551
560
547
546
547
539
523
516
527
541
543
541
525
516
518
503
497
496
497
472
466
478
481
469
467
465
467
459
457
470
467
459
450
460
491
479
455
444
429
436
452
478
494
479
466
461
477
482
476
456
441
458
467
473
466
480
496
507
500
470
445
453
476
487
502
502
511
511
496
482
468
472
476
471
470
467
465
464
475
482
477
461
455
470
458
440
451
459
456
467
463
454
442
432
427
444
472
470
465
466
465
453
454
451
451
462
474
464
451
446
456
467
471
465
468
468
444
447
473
480
486
480
484
495
479
467
470
466
454
447
469
488
490
487
479
480
489
499
501
496
489
502
519
521
497
493
503
500
496
500
493
518
550
553
551
548
549
543
552
558
551
543
534
527
502
481
470
483
478
468
457
457
465
473
478
493
510
507
492
489
483
469
462
482
495
486
471
469
472
464
467
492
507
496
490
487
477
479
472
453
433
409
398
402
414
452
519
598
676
774
899
996
1023
1023
1023
1023
1023
991
850
703
582
496
434
389
374
384
377
351
325
319
326
337
350
349
358
356
344
342
344
350
364
391
406
385
370
365
357
351
359
393
395
365
343
360
391
398
399
422
445
437
422
428
429
439
446
437
428
420
426
432
443
452
449
450
455
439
440
457
460
467
468
468
466
461
461
457
467
496
523
524
520
511
515
522
525
529
539
551
568
572
540
519
531
550
548
545
545
544
543
538
548
562
572
577
571
572
584
577
551
565
593
600
580
556
551
543
548
570
574
570
562
551
554
553
548
578
589
553
523
500
509
519
513
520
525
508
495
484
477
482
499
502
505
503
485
463
457
466
477
496
517
519
492
451
439
454
466
498
529
543
532
509
503
490
494
515
516
505
488
495
498
519
552
541
518
508
498
504
500
484
494
520
542
534
534
534
520
504
508
517
524
541
555
539
518
520
513
508
519
520
509
515
513
520
518
522
541
549
555
533
511
498
493
496
505
531
557
562
553
538
529
507
512
524
521
513
513
513
517
526
531
527
518
505
507
523
536
534
536
543
525
509
513
508
528
540
535
527
526
550
559
568
567
568
582
574
560
565
578
604
616
592
579
569
557
544
525
508
536
540
521
510
513
503
489
468
468
492
510
510
496
484
480
463
455
483
526
533
510
486
477
486
504
512
512
509
503
498
497
512
523
520
510
512
495
453
434
416
418
459
505
561
641
742
859
985
1023
1023
1023
1023
1023
1020
875
750
649
555
486
438
403
360
348
348
354
382
399
385
362
353
382
407
399
399
400
401
408
406
390
366
364
380
405
434
433
435
436
442
443
457
457
454
461
463
456
446
442
451
470
491
491
476
473
477
480
491
499
504
497
480
491
500
510
522
517
497
502
495
502
516
521
526
537
536
518
511
506
511
515
523
538
544
549
563
544
527
529
539
550
557
568
571
582
581
570
567
573
554
519
536
560
564
556
562
564
567
577
571
562
553
555
568
572
561
550
551
544
543
552
561
566
564
544
545
540
521
502
496
493
496
493
482
474
473
468
471
479
463
452
440
426
412
416
434
459
477
470
459
453
454
458
457
454
460
468
444
435
427
433
458
485
490
480
485
477
463
458
450
457
454
456
454
447
456
473
479
487
472
471
477
476
478
489
486
474
488
496
479
467
451
449
460
487
514
537
518
477
455
448
452
454
469
483
485
485
494
508
506
497
493
489
477
465
469
466
467
484
496
486
474
476
479
485
490
506
514
490
448
428
434
434
473
506
486
456
458
471
493
518
511
486
476
470
455
455
478
503
507
516
537
543
533
512
504
506
512
521
515
486
467
446
439
447
459
474
476
455
447
466
463
446
466
483
484
475
456
439
435
441
449
453
454
476
492
487
472
471
484
487
489
483
460
435
422
402
384
380
394
428
451
481
552
648
775
905
1023
1023
1023
1023
1023
1023
988
856
727
609
504
431
388
355
333
341
345
333
334
341
347
358
385
394
390
374
364
373
379
382
389
387
385
377
376
389
404
421
427
431
431
428
419
424
444
445
442
445
444
457
470
464
464
480
480
460
452
450
444
438
451
466
480
490
490
487
482
491
479
473
490
501
510
528
527
504
467
475
497
510
502
500
520
521
523
534
547
549
545
556
562
534
517
523
546
565
572
577
567
546
549
552
560
566
558
551
550
549
564
559
559
569
582
597
584
556
543
540
548
562
575
584
582
561
544
548
549
541
535
510
483
484
486
493
504
521
517
503
501
496
494
503
502
495
478
478
485
493
494
495
491
487
484
482
469
477
481
466
488
495
488
499
504
507
504
494
509
506
513
533
550
542
525
515
512
511
516
522
517
522
537
544
532
508
520
539
527
518
519
514
508
520
536
535
526
529
535
532
533
556
567
538
511
508
502
508
533
550
560
568
544
533
525
514
506
514
519
514
517
530
537
528
529
546
548
534
526
527
515
500
503
515
527
539
550
553
557
563
571
565
536
523
560
573
517
499
514
527
538
560
580
569
571
577
584
594
599
597
584
572
562
566
560
548
546
544
533
518
516
505
497
500
499
495
491
475
479
478
494
504
521
520
521
525
516
503
500
488
475
483
491
476
475
496
518
529
528
511
480
442
414
410
428
451
458
452
508
603
729
853
972
1023
1023
1023
1023
1023
1023
944
791
668
569
511
478
439
390
367
347
336
357
371
364
357
353
349
349
367
381
380
377
386
393
407
416
407
387
401
418
422
420
425
455
470
465
451
443
446
448
433
449
467
472
461
456
469
478
490
494
498
503
496
490
485
488
499
502
507
505
493
488
479
484
497
514
535
535
520
531
530
509
523
543
534
534
537
537
535
534
550
568
566
572
587
577
530
517
542
558
564
572
577
582
593
592
582
576
568
554
551
552
546
550
548
560
559
568
579
585
593
601
593
578
571
562
552
549
546
556
579
567
548
534
515
515
521
512
497
505
511
493
475
480
472
478
497
492
480
487
489
474
471
486
502
521
513
492
481
483
489
491
487
484
492
505
491
479
487
494
500
504
516
519
518
525
545
556
541
527
531
531
541
542
543
534
525
538
532
516
510
508
517
515
524
533
533
532
539
540
531
515
506
515
524
522
510
493
488
506
517
543
552
539
532
526
524
526
543
529
510
515
507
504
504
516
532
538
537
531
520
511
501
501
514
528
526
513
500
512
525
517
520
536
550
545
529
515
505
493
488
504
530
551
553
544
535
534
541
556
560
570
572
581
588
583
589
596
600
580
568
560
547
531
508
508
515
516
509
498
494
505
507
516
529
526
514
498
489
501
513
510
511
517
513
505
507
503
505
512
524
530
523
513
510
489
497
529
531
513
487
453
435
430
440
469
524
584
635
704
811
933
1023
1023
1023
1023
1023
1023
967
799
664
560
493
457
432
395
358
331
335
367
392
416
414
386
373
376
379
389
416
442
432
425
440
444
439
442
457
463
449
429
423
428
438
445
463
469
469
465
467
457
447
461
476
472
481
488
491
489
487
483
468
467
494
500
498
497
495
498
507
518
527
526
504
492
504
524
546
562
554
538
531
527
518
531
534
528
522
533
543
537
545
556
548
532
530
540
541
552
564
559
554
564
562
560
564
560
560
563
563
560
567
556
537
535
556
552
553
558
555
539
535
538
540
542
537
535
534
521
504
484
483
492
496
496
487
470
447
439
461
475
472
459
448
450
443
432
430
433
429
442
459
461
457
460
466
471
468
457
453
448
434
423
430
440
457
466
450
437
436
454
467
472
475
485
494
480
461
450
450
454
484
507
501
488
467
445
457
482
499
493
482
475
453
441
458
478
491
484
471
462
459
466
471
478
489
492
481
469
463
461
461
474
485
490
486
481
481
476
469
478
486
492
492
481
474
478
487
482
488
495
492
492
479
461
459
479
495
495
480
465
465
464
477
482
490
481
466
461
475
479
478
485
497
500
487
470
459
485
498
503
508
515
500
489
488
509
537
546
548
544
534
535
531
521
519
513
494
484
488
481
458
447
444
455
469
456
445
458
480
485
480
473
470
457
451
451
447
440
452
473
478
475
469
467
469
473
465
473
484
485
502
504
479
447
436
429
430
411
397
405
426
449
490
557
648
750
859
964
1023
1023
1023
1023
1023
974
809
654
550
473
423
399
386
366
350
329
318
314
316
330
344
353
366
356
345
343
349
346
357
379
399
397
389
385
384
395
403
412
423
423
422
429
429
431
435
418
422
424
416
404
407
440
466
461
450
438
436
450
477
490
494
479
463
448
446
440
434
455
478
485
480
470
468
480
488
490
488
512
525
513
512
507
490
487
492
491
485
478
480
492
509
520
535
546
545
523
516
531
547
553
568
589
565
521
507
515
532
556
561
565
582
570
549
547
559
566
565
558
551
556
543
532
542
556
550
537
526
521
528
523
506
500
514
509
491
469
469
483
485
484
483
490
489
471
460
457
459
459
466
474
473
466
452
451
470
486
493
488
486
490
485
474
476
487
498
505
504
502
504
505
502
508
519
500
473
461
464
482
499
496
505
516
519
514
499
495
511
532
525
505
495
481
482
481
478
485
489
490
505
517
525
519
508
509
521
526
530
517
504
493
493
485
486
488
488
495
495
479
466
480
502
519
523
527
510
485
474
471
477
476
490
504
488
467
480
503
520
528
520
523
507
496
513
522
515
503
498
497
493
478
472
486
499
499
502
499
496
485
482
510
531
515
496
493
485
482
493
516
538
550
555
556
554
546
552
562
564
548
539
530
501
478
490
514
523
519
511
505
498
482
473
477
492
501
504
498
483
467
470
482
482
492
496
491
493
508
484
465
446
443
454
461
461
469
486
497
499
493
483
457
430
420
433
464
494
522
549
603
682
788
901
1006
1023
1023
1023
1023
1023
899
777
669
578
506
426
366
370
376
367
360
363
363
361
350
337
331
337
357
370
363
354
355
368
366
354
363
381
393
402
396
399
391
383
383
398
422
416
411
397
386
402
431
449
440
435
433
426
433
437
436
438
452
464
467
473
477
468
462
460
459
480
482
460
439
446
462
481
494
491
482
474
484
485
488
504
516
514
503
484
477
485
506
521
525
516
505
508
509
508
511
524
548
566
543
520
528
550
556
555
570
587
586
567
551
559
574
571
570
564
553
545
546
545
547
545
547
544
526
514
511
512
520
524
527
523
503
483
479
479
485
492
502
498
480
468
463
463
485
493
488
480
483
481
474
477
486
503
508
502
483
469
472
467
468
478
494
497
485
475
463
461
466
468
472
478
478
480
484
498
505
526
533
514
490
477
486
505
505
490
491
486
486
493
490
493
503
496
484
499
522
501
481
469
476
502
513
519
532
519
475
467
489
505
510
495
486
493
499
497
501
513
523
525
514
492
473
455
470
507
526
510
483
477
474
472
486
508
520
506
485
486
492
493
508
526
528
514
512
518
488
467
476
501
509
497
484
478
486
481
470
479
498
524
532
519
513
510
507
511
518
537
542
529
517
529
541
567
582
560
533
525
513
497
503
513
518
502
483
475
467
476
493
502
504
485
471
470
476
474
476
489
509
500
470
448
467
497
500
495
490
489
483
476
471
469
470
491
511
514
509
488
452
434
445
438
432
446
462
498
541
587
647
723
823
928
1023
1023
1023
1023
1023
960
839
725
622
530
458
427
420
406
392
386
375
350
325
335
362
370
375
376
372
371
372
388
397
396
394
393
402
402
396
397
393
401
405
412
431
431
434
435
440
446
447
446
439
419
410
427
444
449
449
447
437
437
448
457
465
471
481
484
481
485
477
463
471
471
468
479
491
483
459
456
466
484
499
492
479
489
485
477
488
500
500
497
495
500
500
499
519
538
540
536
535
525
526
537
535
533
530
536
536
528
515
515
534
543
540
532
521
518
520
532
544
548
541
526
528
526
496
478
487
506
524
531
520
500
494
467
443
438
473
500
485
468
475
471
484
488
479
468
465
457
447
445
454
471
480
482
473
452
450
477
485
471
471
468
475
479
480
481
484
482
487
478
473
474
472
471
486
501
504
490
471
464
470
486
500
509
505
510
502
478
496
517
510
505
493
494
496
480
469
474
488
495
507
501
489
473
467
484
508
528
525
507
500
501
494
467
456
466
487
501
508
507
501
510
526
522
516
521
515
503
503
501
492
487
488
484
489
495
491
497
505
520
523
516
502
497
493
497
506
494
478
471
478
490
496
499
508
512
522
531
523
492
484
488
500
514
510
502
500
496
495
508
528
531
516
508
518
535
543
542
560
569
572
563
547
537
543
556
565
578
570
533
503
494
500
508
512
503
490
479
462
443
448
476
498
504
503
500
480
477
477
485
485
483
486
485
470
454
466
511
538
524
504
490
489
489
488
492
495
495
500
500
486
453
421
403
398
404
454
522
589
665
753
855
960
1023
1023
1023
1023
1023
913
773
645
551
483
437
408
384
387
414
421
409
391
376
365
350
342
349
343
345
377
390
391
387
391
394
396
403
406
403
410
405
401
404
424
453
468
462
437
425
441
457
462
458
449
442
443
454
433
417
453
486
485
482
489
475
463
472
490
497
479
465
466
468
472
483
485
490
493
502
509
502
488
495
502
499
501
494
484
477
476
506
540
539
532
523
521
532
541
551
563
568
565
558
551
549
551
542
534
552
556
542
532
523
536
546
556
551
557
546
540
543
519
496
514
550
557
553
551
551
542
534
530
512
504
500
487
480
482
485
493
502
512
513
508
489
473
469
476
486
489
487
482
483
465
442
438
466
507
516
510
505
493
487
496
507
515
507
500
495
494
499
492
498
502
491
482
492
487
487
491
508
515
509
501
488
482
481
497
518
540
536
517
498
488
493
511
521
528
539
543
535
507
492
503
507
501
508
511
510
503
492
489
489
491
504
507
519
533
541
519
517
543
547
525
509
504
509
517
529
528
516
507
494
493
487
480
473
481
502
506
493
486
496
515
531
537
524
509
493
490
490
488
489
511
519
505
511
499
508
522
530
535
537
532
532
538
530
513
505
514
521
515
499
496
510
520
521
526
525
526
524
513
525
522
515
508
500
503
510
520
550
565
580
593
600
595
578
555
542
536
531
546
556
546
541
543
551
545
530
517
508
505
486
476
464
476
481
497
513
493
504
506
500
504
516
501
483
486
492
499
513
505
501
506
516
526
514
504
503
516
518
516
538
539
486
407
380
404
452
496
532
559
611
695
795
905
1012
1023
1023
1023
1023
990
854
735
644
566
495
444
417
399
388
378
371
375
380
380
381
399
390
368
352
369
409
413
394
395
407
408
410
417
423
433
452
443
434
436
434
433
426
431
440
447
452
454
454
451
448
440
432
435
445
485
510
481
459
469
473
453
449
465
475
479
483
482
482
479
488
500
503
505
504
507
504
492
485
493
505
504
480
481
490
509
532
559
588
567
533
514
497
504
527
538
540
541
544
551
561
559
561
564
552
539
535
530
533
546
562
575
575
563
562
560
553
542
542
563
566
570
545
522
517
524
524
525
518
518
531
549
540
525
500
482
475
474
473
479
485
498
502
499
496
492
487
476
475
466
475
491
484
480
478
465
469
484
506
499
475
477
479
481
485
480
480
494
508
515
508
496
492
505
510
516
496
469
461
464
478
491
496
499
500
495
485
483
487
500
500
491
473
464
476
488
487
498
522
529
528
524
511
505
502
489
492
505
507
503
495
476
484
499
499
498
503
508
512
519
518
509
500
503
514
499
477
467
494
527
544
534
523
514
503
490
491
489
491
500
507
505
479
477
493
502
510
522
532
537
543
539
516
491
480
486
512
527
521
505
502
504
501
503
516
513
508
508
505
517
504
477
479
493
505
508
510
509
510
511
517
515
512
507
507
506
498
503
516
536
543
541
547
543
536
539
537
535
534
532
535
542
543
542
547
540
529
518
495
483
471
469
483
489
488
494
480
456
443
448
461
473
478
476
487
487
480
484
483
475
470
476
475
475
474
477
503
521
508
480
478
482
490
495
496
474
427
389
388
420
462
502
553
625
706
810
913
1012
1023
1023
1023
1023
1021
883
741
621
525
460
426
405
399
389
378
366
350
357
374
380
383
369
372
384
383
385
400
403
387
374
369
367
413
443
439
423
417
419
405
386
391
406
426
448
475
498
466
445
442
464
461
457
462
465
458
451
464
491
489
484
483
480
466
451
466
477
484
489
492
486
479
491
495
486
484
500
514
511
497
481
483
499
523
539
543
534
502
498
495
504
535
543
536
537
540
546
536
538
561
564
555
550
542
527
529
547
547
548
573
568
546
529
541
550
562
575
567
546
538
542
537
544
550
544
533
527
526
522
517
513
509
499
491
479
479
494
500
503
501
483
476
484
484
469
476
485
480
467
460
448
442
452
457
464
469
459
445
451
467
468
453
457
449
448
456
462
463
462
481
478
478
473
477
474
470
484
486
490
472
458
469
479
469
447
448
470
491
491
496
489
484
478
463
451
453
465
483
486
481
471
462
478
489
492
477
468
451
426
423
439
457
459
444
429
415
413
408
422
445
459
460
430
397
380
375
368
363
374
378
371
371
358
355
373
374
359
349
331
338
346
346
353
363
377
385
375
354
341
339
358
371
364
365
383
399
408
396
372
370
373
375
379
373
374
364
360
382
395
406
431
448
429
409
401
395
408
424
453
464
477
476
477
466
466
471
485
486
470
447
457
502
533
545
557
556
558
533
524
524
535
549
552
556
556
536
509
514
518
523
520
518
518
514
509
519
532
534
515
497
487
487
499
509
524
533
528
537
545
543
535
531
541
548
541
535
527
522
525
544
555
548
547
530
484
455
460
492
503
509
541
596
659
746
867
994
1023
1023
1023
1023
1023
1023
895
776
658
555
467
427
404
390
393
405
395
383
373
368
366
376
385
395
403
419
421
407
416
430
421
416
432
430
422
431
452
466
467
468
477
481
478
474
466
474
481
485
497
499
498
490
483
497
507
506
515
514
522
518
490
474
492
519
536
549
550
539
532
532
544
549
532
535
540
527
520
526
529
551
577
589
577
557
556
592
603
606
602
577
550
533
541
562
589
597
605
618
602
579
567
564
577
595
603
591
593
592
587
584
587
602
614
599
596
589
590
595
596
604
594
594
595
589
570
543
541
547
549
548
536
516
503
503
519
545
550
520
506
514
494
502
522
510
493
493
498
501
492
498
521
532
538
542
537
533
534
513
506
512
508
510
515
523
511
496
509
522
529
524
522
519
518
513
519
525
533
544
542
532
523
515
522
535
545
557
558
540
525
532
554
544
526
523
522
503
494
495
508
530
550
544
541
538
544
543
529
521
520
526
533
529
510
511
511
518
542
555
569
558
552
552
543
525
514
523
518
516
531
546
533
523
535
530
537
531
522
529
540
551
548
527
519
511
502
503
513
527
540
542
534
531
534
546
543
534
522
529
528
513
501
510
530
539
543
533
530
525
515
505
493
508
540
546
535
530
530
528
535
539
541
557
555
553
547
545
548
562
577
581
585
598
602
609
614
602
586
583
573
543
533
537
531
519
508
527
544
528
515
502
492
499
502
497
498
507
508
512
541
544
524
519
519
510
517
530
529
524
532
539
529
502
489
485
498
513
504
484
459
443
432
440
460
479
525
591
692
792
905
1023
1023
1023
1023
1023
1023
1009
843
724
640
572
493
435
400
393
386
381
358
333
343
376
387
385
378
377
372
369
380
381
397
422
438
425
423
438
443
451
461
471
464
474
487
476
465
461
477
477
466
440
446
467
475
476
477
463
454
475
496
503
508
512
505
505
494
476
479
506
521
525
527
505
487
486
490
503
519
533
528
498
485
485
516
554
565
547
525
527
532
537
528
516
503
502
521
530
526
524
540
546
561
566
555
548
544
553
569
583
581
563
556
532
515
520
545
563
576
567
558
552
556
546
531
539
539
528
530
531
521
508
512
511
499
484
467
463
474
491
495
481
481
467
464
463
449
440
440
470
501
487
469
462
464
474
468
468
475
483
476
456
462
481
485
483
500
528
526
501
490
488
495
486
481
467
439
451
476
488
495
497
490
488
492
486
490
490
495
510
518
508
501
497
476
472
502
513
512
512
510
493
486
477
488
505
512
505
506
499
492
511
534
529
504
496
499
503
508
503
503
513
504
482
476
478
473
456
472
512
528
537
534
510
484
488
495
505
506
495
491
508
530
542
518
502
526
518
495
490
493
505
511
509
495
502
506
501
485
490
499
501
501
505
512
514
509
506
514
516
520
532
541
544
530
511
509
531
555
541
512
516
524
534
550
575
590
599
583
556
541
527
510
525
551
549
533
511
491
484
498
516
513
495
482
466
474
479
468
479
479
472
470
498
484
471
466
494
501
496
490
485
488
488
487
478
479
489
493
489
482
468
450
427
413
424
443
462
460
486
570
701
829
955
1023
1023
1023
1023
1023
1023
899
759
664
559
468
414
377
360
355
357
366
372
370
365
361
366
376
384
379
363
386
400
354
352
391
394
377
382
384
386
397
404
408
410
411
412
411
423
425
434
448
451
444
440
437
424
425
451
488
499
478
463
452
436
453
474
475
494
522
529
504
469
445
452
477
490
490
486
484
491
498
504
502
494
488
496
502
505
524
542
541
526
504
502
509
516
524
531
518
522
572
621
598
535
514
521
520
537
549
544
525
526
542
556
558
565
582
582
554
527
530
541
548
563
568
560
540
541
551
552
546
560
560
540
505
484
480
475
453
441
448
460
457
463
470
474
481
492
485
475
466
462
461
467
481
488
478
468
454
448
474
495
504
490
477
467
468
463
479
502
505
517
520
524
520
508
495
485
482
483
476
465
464
472
484
507
525
523
513
515
518
510
497
485
496
503
490
483
480
481
504
530
539
540
542
539
532
496
494
522
542
548
533
523
509
499
492
494
496
517
526
523
508
490
489
488
499
504
500
499
488
486
497
518
543
542
539
534
527
518
507
501
511
530
527
522
533
516
489
479
500
522
532
517
488
487
503
514
522
521
511
504
497
495
500
516
528
529
521
519
516
509
518
543
541
547
585
601
558
522
530
552
572
577
578
555
523
513
510
512
515
524
520
500
491
492
494
486
488
487
504
487
465
469
478
472
472
480
482
463
463
468
451
446
468
486
483
472
472
478
487
489
493
491
470
453
439
428
414
412
437
462
479
516
581
670
798
928
1023
1023
1023
1023
1023
1023
917
756
638
555
482
426
398
378
358
349
359
366
364
358
345
347
346
357
348
344
347
347
363
371
360
372
392
395
381
379
374
375
379
388
406
422
425
428
410
388
386
390
416
450
463
465
450
427
421
437
456
455
466
472
471
473
471
469
473
486
498
497
489
471
462
487
484
464
472
504
491
478
471
465
476
488
489
480
468
495
527
529
516
520
523
517
508
500
492
501
526
555
567
565
562
552
525
525
540
533
537
550
555
556
536
525
530
534
554
578
584
566
549
542
543
537
529
529
527
523
506
495
496
503
493
483
464
468
487
492
509
496
468
449
447
457
467
458
459
462
456
455
451
454
473
468
460
486
498
477
471
475
466
461
464
471
470
476
471
461
465
479
494
503
488
460
446
471
482
477
476
462
457
459
461
473
475
480
502
526
534
515
476
470
482
503
507
501
495
490
484
481
490
508
514
531
531
509
496
492
493
505
503
498
494
485
487
482
485
507
498
490
486
481
486
497
513
520
508
482
461
467
488
502
516
516
509
494
495
497
498
508
505
496
497
502
502
501
494
493
504
519
523
524
519
507
505
511
507
498
511
517
502
485
492
510
528
551
533
526
529
534
530
534
550
560
568
582
586
582
579
579
575
564
546
543
538
530
518
499
484
490
502
510
504
499
474
465
489
498
501
513
505
498
502
507
502
501
504
508
491
471
450
449
480
523
544
512
476
470
485
492
491
486
463
429
418
421
427
438
481
551
640
767
889
1009
1023
1023
1023
1023
1023
970
824
699
582
486
429
400
384
365
347
346
357
359
356
365
381
390
386
367
357
361
374
383
400
407
404
407
412
414
396
400
409
422
425
422
418
416
427
448
465
479
478
455
449
459
449
448
456
474
485
478
468
456
447
464
497
527
530
509
483
460
460
479
498
488
489
495
498
508
531
534
528
527
529
529
527
518
522
534
533
533
540
529
531
540
553
552
550
550
543
540
534
520
518
530
548
555
553
552
552
550
550
559
570
586
589
585
575
561
544
539
550
564
568
564
540
529
534
555
588
604
569
518
492
463
451
466
476
477
476
473
458
449
452
464
480
488
487
471
463
462
455
458
467
462
455
449
451
453
451
461
479
485
516
521
523
527
502
500
499
503
510
515
516
508
504
505
523
541
543
545
543
533
534
541
540
551
558
551
531
529
534
525
521
525
520
514
515
509
507
512
522
542
543
532
515
508
502
500
517
545
550
529
501
483
493
516
530
527
526
516
503
505
500
501
520
531
542
517
493
489
504
502
522
516
515
523
501
484
489
491
510
524
537
526
504
495
505
515
526
534
526
520
496
474
487
504
502
501
500
499
500
515
530
525
510
519
530
527
537
545
547
551
551
548
564
574
574
563
556
555
558
550
548
528
514
496
485
490
510
516
518
501
489
480
479
494
509
513
499
491
478
492
491
482
491
499
505
512
525
518
503
493
490
505
520
511
497
492
480
464
463
457
455
462
470
461
464
503
586
692
811
935
1023
1023
1023
1023
1023
1023
923
764
644
551
476
439
430
419
393
375
367
362
358
365
388
406
400
396
375
355
360
367
385
394
407
418
404
384
372
385
409
427
428
421
429
426
426
430
429
435
453
449
436
420
415
431
451
446
451
463
460
467
480
471
464
466
472
476
472
469
473
494
505
493
482
490
496
494
498
522
529
522
519
507
494
483
484
509
525
527
530
504
494
493
507
523
528
536
548
545
531
533
541
541
557
581
592
578
556
533
539
544
553
561
565
575
580
576
560
552
558
557
550
551
541
531
530
526
530
526
525
522
523
515
500
510
507
483
471
476
474
482
493
480
465
452
449
460
450
452
463
477
476
472
475
470
464
455
450
466
487
510
514
496
487
476
461
458
479
494
503
494
476
474
472
475
483
482
474
475
476
479
466
466
487
506
524
517
493
469
458
464
487
514
511
488
479
472
480
480
478
493
496
493
489
481
471
467
478
481
486
492
487
473
474
474
473
484
492
480
466
459
467
482
498
508
498
486
471
468
484
498
502
501
485
477
478
480
484
497
513
512
501
489
474
467
463
467
490
503
513
510
495
476
476
492
512
527
517
500
488
482
486
492
497
491
475
483
504
509
507
529
540
535
546
550
551
544
537
541
552
565
565
541
521
519
517
527
540
519
487
476
468
451
452
457
457
474
500
502
493
482
477
486
509
506
490
483
487
471
462
474
489
497
496
498
491
485
491
476
477
477
478
471
443
418
417
444
480
506
547
600
654
738
842
962
1023
1023
1023
1023
1023
972
816
696
605
512
443
417
389
367
365
363
356
342
338
347
351
353
355
360
361
356
376
391
390
384
377
370
374
382
380
392
397
389
385
401
418
423
433
440
426
411
413
423
430
436
438
437
425
423
428
433
440
453
470
465
463
478
480
460
456
471
477
469
453
449
448
450
470
491
497
497
489
471
478
497
502
496
500
500
497
493
483
492
503
501
501
504
503
508
512
513
516
530
527
520
528
515
516
528
517
514
533
543
528
521
528
536
546
545
538
538
539
532
518
509
510
517
515
519
503
488
480
486
486
488
492
492
490
466
449
456
464
469
457
448
462
468
458
445
454
464
471
470
462
451
432
437
453
473
478
472
475
473
468
477
482
477
476
477
479
474
451
444
469
502
521
511
496
482
483
479
483
485
493
492
477
464
466
468
469
484
511
514
505
510
519
509
508
509
509
517
511
493
475
479
500
515
525
529
524
514
510
521
519
506
496
476
471
474
497
517
523
511
504
508
506
500
494
496
504
513
531
544
525
508
498
489
498
510
508
502
505
518
513
496
482
468
490
527
537
513
496
503
510
516
511
502
485
478
490
509
516
525
525
515
510
505
497
505
520
529
526
514
508
512
525
529
537
554
551
550
564
574
569
553
531
518
518
513
495
484
483
494
498
501
494
490
478
475
469
457
480
509
508
495
479
466
476
492
512
