470
461
449
462
477
468
449
456
467
448
423
417
410
376
340
339
345
323
303
310
318
301
282
286
293
272
249
256
263
251
239
255
274
269
263
284
307
303
302
326
350
353
358
389
423
433
443
479
519
536
550
589
635
655
668
702
740
751
754
777
803
798
778
777
779
749
705
685
667
618
560
525
490
433
379
350
318
270
228
213
193
161
145
150
145
130
136
158
170
166
182
216
230
231
253
291
306
308
331
366
382
385
406
437
452
455
477
512
525
525
537
554
547
530
529
539
531
508
502
510
500
476
466
464
444
413
401
411
416
413
427
454
468
460
462
473
466
446
437
440
420
389
372
363
331
281
242
205
140
56
17
6
3
2
1
1
1
1
1
1
1
1
1
1
1
1
1
1
1
1
1
1
1
0
0
1
1
1
1
1
1
1
1
1
1
1
1
1
1
1
1
1
1
1
0
1
0
1
0
0
0
1
1
0
0
1
1
1
1
1
1
1
0
0
1
1
0
1
1
0
1
1
0
1
1
0
1
1
83
460
853
1023
1023
1023
1023
1023
1023
1023
1023
1023
1023
1023
1023
1023
1023
1023
1023
1023
1023
1023
1023
1023
1023
1023
1023
1023
1023
1023
1023
1023
1023
1023
1023
1023
1023
1023
1023
1023
1023
1023
1023
1023
1023
1023
1023
1023
1023
1023
1023
1023
1023
1023
1023
1023
1023
1023
1023
1023
1023
1023
1023
1023
1023
1023
1023
1023
1023
1023
1023
1023
1023
1023
1023
1023
1023
1023
1023
1023
1023
1023
1023
1023
1023
1023
1023
1023
1023
1023
1023
1023
1023
1023
1023
1023
1023
1023
1023
1023
1023
1023
1023
1023
1023
1023
1023
1023
1023
1023
1023
1023
1023
1023
1023
1023
1023
1023
1023
1023
1023
1023
1023
1023
1023
1023
1023
1023
1023
1023
1023
1023
1023
1023
742
454
177
53
17
7
3
2
1
1
1
1
1
1
1
1
1
1
1
1
1
1
1
1
1
1
1
1
1
1
1
1
1
1
1
1
1
1
1
0
1
1
1
1
0
1
1
1
1
1
1
1
1
1
1
1
1
1
1
1
1
1
1
1
1
1
1
1
1
1
1
1
1
1
1
1
1
1
1
0
1
0
1
0
1
1
1
1
1
1
1
1
1
1
1
0
1
0
1
1
1
1
1
0
0
1
1
1
1
1
1
1
1
1
1
1
1
1
1
0
1
1
1
0
1
1
1
1
1
1
1
1
1
0
1
0
0
1
0
1
1
0
0
0
1
0
1
1
1
1
1
1
1
1
0
0
0
0
0
0
0
0
0
0
1
0
0
1
1
1
1
0
0
1
1
1
1
0
1
1
1
0
1
1
1
1
0
1
1
1
1
1
1
0
1
0
1
1
0
1
0
1
0
0
1
1
1
1
0
0
1
0
1
0
0
1
1
0
1
1
1
1
1
0
0
1
1
1
0
0
1
1
1
1
1
1
0
1
1
0
0
1
0
1
1
0
0
0
0
0
1
1
1
1
1
0
1
1
1
0
1
1
0
1
1
0
1
1
1
0
1
0
1
0
1
0
1
1
0
0
1
0
1
1
1
0
1
1
0
1
0
0
0
0
1
0
0
0
0
1
1
0
0
0
1
1
1
0
0
0
0
0
0
0
0
0
1
0
1
1
1
0
1
1
0
1
1
1
0
1
0
1
0
0
1
1
0
0
1
0
1
0
0
0
1
1
1
1
1
1
0
1
1
1
0
1
1
1
1
1
1
1
1
1
1
1
1
1
1
1
1
1
1
1
1
1
1
1
2
5
7
10
12
15
17
19
22
24
26
29
31
33
36
38
40
43
45
47
49
51
54
56
58
61
63
65
67
69
71
73
75
77
79
81
84
86
88
90
92
94
96
98
100
102
104
106
108
110
112
113
115
117
119
121
123
125
127
128
130
132
134
136
138
140
141
143
145
147
148
150
152
153
155
157
158
160
162
163
165
167
168
170
172
173
175
176
178
179
181
183
184
186
187
189
190
192
193
195
196
198
200
201
202
204
205
207
208
209
211
212
214
215
217
218
220
221
222
224
225
226
228
229
230
232
233
234
236
237
238
239
241
242
243
244
246
247
248
250
251
252
253
254
256
257
258
259
261
262
263
264
265
267
268
269
270
271
272
273
274
275
276
278
279
280
281
282
283
284
285
286
287
288
289
290
291
292
293
294
295
296
297
298
299
300
301
302
303
304
305
306
307
308
309
310
311
312
313
313
314
315
316
317
318
319
320
321
322
322
323
324
325
326
327
328
328
329
330
331
332
333
333
334
335
336
337
337
338
339
340
340
341
342
343
344
344
345
346
347
347
348
349
350
350
351
352
352
353
354
355
355
356
357
357
358
359
359
360
361
362
362
363
363
364
365
366
366
367
368
368
369
369
370
371
371
372
373
373
374
374
375
376
376
377
378
378
379
379
380
381
381
382
382
383
384
384
385
385
386
386
387
387
388
388
389
390
390
391
391
392
392
393
393
394
394
395
395
396
396
397
397
398
398
399
399
400
400
401
401
402
402
403
403
404
404
404
405
405
406
406
407
407
408
408
409
409
409
410
410
411
411
412
412
413
413
414
414
414
415
415
416
416
416
417
417
418
418
418
419
419
420
420
420
421
421
421
422
422
423
423
423
424
424
424
425
425
426
426
426
427
427
427
428
428
428
429
429
429
430
430
430
431
431
431
432
432
432
433
433
433
434
434
434
435
435
435
436
436
436
436
437
437
437
438
438
472
545
603
508
456
442
439
439
439
439
439
439
440
440
440
441
441
441
442
442
442
450
510
577
556
483
494
513
502
498
508
489
549
552
545
524
525
536
546
592
579
605
654
607
642
712
744
769
761
739
734
808
810
852
843
831
803
847
885
900
895
901
842
769
716
683
620
587
585
613
626
629
619
624
653
669
688
725
741
757
809
866
890
901
911
884
917
959
940
965
902
847
829
879
863
898
920
906
937
944
888
853
832
848
879
930
975
935
879
869
910
894
937
971
967
983
954
919
937
981
1023
1023
979
958
971
981
994
1023
1015
961
990
988
1011
1023
1023
1023
1023
1023
1023
1023
1023
999
1023
1023
1023
1023
1023
1023
1023
1023
1023
1023
1023
1023
1023
1023
1023
1023
1023
1023
1023
1023
1023
1023
1023
1023
1023
1023
1023
1023
1023
1023
1023
1023
1023
1023
1023
1023
1023
1023
1023
1023
1023
1023
1023
1023
1023
1023
1023
1023
1023
1023
1023
1023
1023
1023
1023
1023
1023
1023
1023
1023
1023
1012
1023
1023
1023
1023
1023
1023
1023
1023
1023
1023
1023
1023
1023
1023
1023
1023
1023
1023
1023
1023
1023
1023
1023
1023
1023
1023
1023
1023
1023
1023
1023
1023
1023
1023
1023
1023
1023
1023
1023
1023
1023
1023
1023
1023
1023
1023
1023
1023
1023
1023
1023
1023
1023
1023
1023
1023
1023
1023
1023
1023
1023
1023
1023
1023
1023
1023
1023
1023
1023
1023
1023
1023
1023
1023
1023
1023
1023
1023
1023
1023
1023
1023
1023
1023
1023
1023
1023
1023
1023
1023
1023
1023
1023
1023
1023
1023
1023
1023
1023
1023
1023
1023
1023
1023
1023
1023
1023
1023
1023
1023
1023
1023
1023
1023
1023
1023
1023
1023
1023
1023
1023
1023
1023
1023
1023
1023
1023
1023
1023
1023
1023
1023
1023
1023
1023
1023
1023
1023
1023
1023
1023
1023
1023
1023
1023
1023
1023
1023
1023
1023
1023
1023
1023
1023
1023
1023
1023
1023
1023
1023
1023
1023
1023
1023
1023
1023
1023
1023
1023
1023
1023
1023
1023
1023
1023
1023
1023
1023
1023
1023
1023
1023
1023
1023
1023
1023
1023
1023
1023
1023
1023
1023
1023
1023
1023
1023
1022
979
1008
1023
1023
1007
1016
1020
1023
1023
1023
1023
1023
976
1023
1023
1023
1023
1023
1023
1023
1023
1023
1023
1023
1023
1023
1023
1023
1023
1023
1023
1023
1023
1023
1023
1023
1023
1023
1023
1023
1023
1023
1023
1023
1023
1023
1023
1023
1023
1023
1023
1023
1023
1023
1023
1023
1023
1023
1023
1023
1023
1012
965
946
954
916
903
867
921
921
915
895
925
935
928
906
885
887
877
897
926
899
899
898
914
913
916
876
918
890
880
939
945
889
875
899
884
947
912
893
880
914
940
914
868
866
907
882
889
908
909
887
867
858
900
902
909
883
851
847
843
858
924
819
810
876
855
838
862
885
840
836
861
852
844
886
851
852
855
856
806
802
843
864
802
827
847
815
843
797
779
806
811
781
807
846
813
793
800
819
780
825
841
808
792
785
798
799
774
783
806
818
861
795
750
807
792
783
807
803
784
813
816
790
836
813
820
821
818
829
857
833
839
815
808
852
834
814
747
775
772
739
723
694
697
802
941
1023
1023
1023
1023
882
654
564
611
668
675
636
635
645
689
706
704
689
714
715
687
712
725
726
710
704
668
680
742
784
750
734
742
786
792
757
711
747
724
770
756
762
785
807
811
801
822
800
793
798
805
815
828
813
807
814
793
831
840
804
784
759
743
744
744
666
637
651
691
592
548
538
553
570
544
487
501
510
554
522
545
579
562
627
582
516
549
577
595
580
565
594
592
591
596
603
609
595
619
600
591
614
630
607
638
594
590
576
612
616
646
648
614
629
643
639
650
616
656
656
619
604
656
639
662
657
604
619
679
657
639
620
626
684
684
645
663
670
667
641
619
650
673
632
689
651
665
632
650
689
673
676
674
648
669
703
650
605
608
608
629
704
658
653
628
634
629
626
621
671
670
659
654
647
633
676
678
627
616
617
605
606
658
670
640
671
664
695
700
669
708
737
719
667
646
636
677
668
671
653
670
679
684
651
692
665
631
621
606
653
641
658
728
913
1023
1006
895
706
544
490
444
509
564
608
624
577
505
521
510
550
564
576
564
639
621
616
606
614
637
620
578
594
587
617
652
638
663
615
633
635
633
621
646
666
671
669
655
681
734
720
662
623
671
710
751
742
723
703
744
722
709
699
708
691
665
641
604
594
573
539
542
528
429
495
508
507
494
465
483
489
496
465
450
465
494
522
521
545
536
548
541
538
575
552
560
589
548
522
531
531
537
584
609
570
550
574
583
554
558
578
563
566
535
548
576
572
583
539
521
562
586
591
609
567
549
577
586
566
561
593
625
583
573
545
556
545
566
559
580
592
567
552
540
541
568
593
571
580
567
589
563
548
605
616
590
536
539
598
588
572
555
573
587
561
576
586
572
610
633
558
555
545
584
598
606
578
540
561
596
598
615
652
637
549
525
574
608
593
603
607
626
612
581
603
573
588
581
598
664
606
579
570
615
613
625
561
562
564
608
629
563
526
579
539
516
562
646
834
962
990
916
762
597
470
434
499
546
457
456
509
510
479
514
474
495
530
545
556
600
579
552
535
545
544
559
594
540
504
480
537
586
585
591
550
590
597
547
561
589
579
567
577
591
640
670
630
620
654
637
677
748
719
636
665
628
617
661
688
607
569
589
639
579
513
474
459
432
459
453
414
415
430
415
415
418
429
438
485
472
418
401
445
472
425
445
463
487
469
545
538
486
474
492
498
480
497
489
486
503
512
535
526
546
533
545
570
547
549
512
537
556
559
475
499
504
538
547
559
547
550
552
543
564
543
534
580
557
550
526
514
530
551
567
560
557
547
547
599
596
559
548
529
547
541
568
532
547
516
535
544
539
557
561
565
607
523
476
558
561
520
536
544
529
539
559
555
586
578
500
490
531
558
580
542
562
516
499
525
545
566
543
544
519
516
532
558
537
536
560
532
556
555
527
512
548
569
577
580
559
501
549
561
508
493
519
499
514
485
462
494
541
649
835
958
945
811
617
476
425
379
328
371
380
404
408
468
486
452
457
484
425
438
444
451
468
479
452
442
466
467
518
493
496
508
527
489
515
490
521
509
519
529
563
617
533
496
537
570
616
605
552
613
652
584
587
621
662
668
627
607
549
547
549
481
493
514
464
441
400
374
329
355
362
345
326
305
362
360
364
415
382
367
330
348
413
449
396
365
378
394
440
435
447
436
445
426
452
482
450
481
486
483
486
486
462
463
464
450
539
493
465
490
512
517
526
509
435
449
455
521
510
479
446
471
503
501
514
525
534
473
467
503
502
475
539
502
495
474
481
509
492
531
507
481
467
487
495
516
487
514
590
519
473
515
550
506
499
531
505
532
550
521
507
522
499
465
501
515
522
528
491
527
526
556
517
472
505
520
505
521
545
531
525
498
507
556
532
545
537
520
535
554
541
580
537
559
588
584
574
546
507
493
529
537
567
543
509
531
521
467
573
710
862
967
916
775
630
480
415
403
395
434
428
433
451
505
520
479
469
486
495
500
531
528
531
488
484
484
469
505
548
542
493
482
531
511
528
568
559
561
508
556
584
600
563
573
588
573
655
606
603
630
630
647
620
660
617
620
626
646
654
658
568
578
572
543
537
502
487
437
360
364
385
392
386
395
403
399
402
436
405
416
425
411
443
449
408
398
403
477
509
478
483
476
466
473
521
487
480
500
494
533
515
509
519
463
477
517
540
564
520
503
524
497
513
500
521
554
556
525
586
534
519
515
494
539
539
520
536
531
532
500
527
519
567
501
480
488
538
551
557
525
490
494
512
525
513
488
496
516
495
536
526
507
503
508
487
501
517
567
539
553
484
481
514
527
537
508
523
514
556
551
551
538
529
539
527
561
536
513
511
517
542
574
563
536
562
556
543
566
530
570
586
538
563
563
541
539
574
591
622
551
522
497
500
498
514
529
474
496
558
637
790
948
995
885
722
560
445
425
433
481
441
417
410
429
478
514
466
453
484
450
481
515
525
492
481
496
505
508
509
502
521
525
557
513
545
533
567
548
588
574
566
543
552
573
554
559
562
566
601
644
641
660
646
631
653
656
651
589
606
624
628
575
528
484
487
448
449
455
414
382
385
355
413
414
356
364
376
368
399
408
381
381
387
424
425
438
419
432
444
448
443
436
448
436
402
462
502
471
451
476
456
467
466
492
503
497
456
476
423
486
497
490
471
448
477
492
478
500
467
485
492
467
492
507
503
474
479
496
493
499
517
545
522
513
525
489
481
475
505
506
482
519
508
493
522
542
541
532
498
525
528
531
529
495
489
492
526
533
515
539
511
505
520
503
504
513
574
565
495
492
479
476
516
530
494
505
511
504
524
498
575
602
587
500
483
501
523
520
519
497
540
544
502
542
565
552
490
484
527
514
536
526
500
519
534
542
520
519
516
480
519
493
500
481
468
508
631
793
930
961
840
678
486
378
366
399
401
450
459
437
447
459
463
443
428
425
468
484
475
498
483
495
559
554
509
503
555
516
488
496
511
526
548
535
536
559
583
573
566
526
544
558
560
625
604
604
586
612
598
640
687
666
619
626
591
560
610
618
549
530
506
475
478
399
387
416
400
375
414
416
390
381
326
335
390
398
421
423
421
416
393
435
412
405
455
470
461
449
473
490
486
485
448
421
442
442
440
465
477
514
502
463
497
504
530
528
485
481
496
529
489
455
451
483
495
505
505
488
504
509
492
493
497
472
479
457
475
468
460
441
416
493
526
563
492
456
484
509
533
484
466
484
510
522
526
535
523
490
531
508
538
549
515
526
534
538
529
498
511
534
533
547
518
513
555
528
510
506
556
550
506
494
500
489
515
545
516
481
483
498
504
511
537
547
576
526
494
553
558
543
532
551
518
533
518
525
533
549
534
530
517
512
496
497
519
516
522
488
498
561
662
819
966
921
732
579
484
416
407
392
456
452
443
474
428
471
488
485
507
540
493
452
469
523
540
537
534
532
495
488
501
510
529
531
512
517
542
574
619
564
512
534
533
537
551
586
613
603
601
608
620
605
611
664
663
611
616
655
644
617
592
575
555
558
493
487
490
451
433
396
366
415
369
350
409
417
375
401
362
349
414
432
419
381
408
424
435
433
430
453
480
489
446
470
461
507
512
440
437
484
519
498
469
514
499
492
525
525
516
588
484
462
496
488
519
485
461
475
486
505
514
513
545
512
513
488
488
510
553
564
537
538
537
518
529
547
533
518
518
523
496
518
554
569
546
561
515
504
539
557
564
542
536
515
508
502
529
555
551
506
526
514
520
502
518
520
530
520
499
496
491
496
525
533
590
593
564
471
532
479
484
524
553
522
500
533
509
503
533
538
588
553
532
519
543
540
543
592
602
565
550
578
567
488
542
595
612
569
594
583
532
557
560
557
551
549
502
489
511
569
638
780
959
970
896
727
572
436
432
426
438
449
460
458
471
459
495
473
473
457
462
453
464
513
514
504
495
530
512
523
510
514
533
535
564
564
505
530
544
553
548
577
610
621
587
615
603
624
623
613
621
593
627
674
684
638
621
674
682
663
673
622
559
587
533
476
470
464
427
416
399
397
428
374
349
373
348
368
374
370
347
429
419
417
405
427
408
389
423
436
437
461
441
445
422
489
467
489
494
480
472
469
473
476
479
481
449
479
501
491
489
494
494
509
523
515
496
508
487
457
455
479
535
504
452
519
552
498
487
487
482
500
523
518
519
502
513
513
514
512
508
470
509
524
511
477
498
500
506
551
537
501
497
510
498
489
532
573
524
469
477
506
508
521
510
552
525
466
457
492
489
528
508
510
553
518
508
499
498
527
531
520
527
490
489
514
510
523
495
492
479
481
540
530
526
495
516
520
523
528
505
485
504
538
579
555
512
526
535
551
547
551
506
481
487
491
496
470
485
526
489
510
552
657
783
929
981
855
648
484
348
326
400
453
450
410
435
421
429
463
471
472
465
463
465
464
474
501
479
504
523
471
496
519
513
590
587
493
453
490
537
531
524
526
539
552
565
559
574
632
620
604
576
636
611
619
627
632
624
602
610
590
590
592
557
570
541
496
478
450
440
451
433
391
369
370
407
378
388
385
370
374
374
342
359
423
410
435
459
442
454
458
414
400
438
453
416
441
496
512
466
433
415
439
440
471
481
503
501
468
458
481
498
508
444
440
443
495
518
505
450
432
485
486
478
504
519
529
477
465
492
516
488
514
522
519
535
463
474
492
464
490
528
538
515
511
503
512
541
536
595
514
504
517
509
497
527
542
541
528
539
553
519
486
516
532
541
525
498
534
517
526
510
520
505
489
476
526
533
515
521
530
546
516
475
524
539
568
547
521
540
531
506
526
508
501
475
517
556
559
528
506
542
565
543
576
506
537
516
502
535
516
536
559
555
567
524
499
478
505
532
517
469
492
500
576
736
891
992
894
742
562
421
353
404
399
478
470
429
442
474
455
458
505
475
453
507
485
487
518
526
514
479
496
499
517
522
534
550
513
505
531
563
550
574
567
510
522
550
579
622
587
603
636
627
623
645
632
654
642
639
668
685
673
658
644
624
633
590
602
554
466
486
418
411
418
386
389
400
398
381
382
377
391
371
390
407
398
390
399
406
447
403
382
415
456
466
441
460
460
453
471
471
449
447
462
460
498
516
504
518
494
480
505
482
475
519
474
484
460
482
486
490
550
537
478
491
514
492
492
534
527
486
483
466
518
488
507
521
520
487
495
518
499
516
533
523
500
506
476
527
539
573
543
529
485
482
473
500
555
518
521
535
548
514
511
493
493
509
544
549
525
509
519
499
488
546
549
560
555
511
476
509
531
512
497
515
531
494
487
487
497
532
518
506
529
530
497
533
546
575
562
511
472
532
507
485
499
540
563
539
513
501
540
563
557
515
515
520
503
538
458
502
518
500
466
445
471
582
781
917
971
928
793
563
419
384
411
421
460
445
442
416
426
431
454
465
489
516
463
498
461
512
487
489
497
470
505
496
500
481
510
508
519
542
520
520
542
550
540
540
546
535
551
550
554
595
572
588
619
641
620
609
573
601
640
670
647
617
581
564
557
556
509
475
460
452
399
373
380
393
372
345
346
354
357
388
399
412
396
351
363
401
402
390
403
455
442
423
427
421
438
433
419
433
470
474
486
481
478
483
501
467
460
478
484
510
480
526
509
472
469
467
486
482
512
501
469
524
495
500
502
509
496
486
517
518
504
459
489
510
534
520
478
452
485
480
526
535
521
521
490
495
500
546
537
495
478
491
486
476
490
514
502
524
517
509
506
515
526
517
497
496
502
504
525
542
532
504
484
519
503
514
511
502
517
525
514
516
499
489
514
519
512
524
528
545
538
519
504
482
544
538
518
518
508
509
561
549
540
514
535
572
524
543
529
496
501
493
480
477
465
476
586
734
895
964
892
714
499
389
327
381
401
471
472
475
456
445
455
476
488
457
430
478
467
446
491
516
524
506
527
508
518
490
512
532
498
505
522
571
600
574
561
553
561
571
567
582
562
566
625
578
607
618
623
621
644
713
662
620
619
612
620
586
548
552
547
485
470
423
449
442
445
398
379
364
361
363
358
363
391
393
395
422
424
406
370
422
459
438
466
443
430
446
439
477
492
482
508
486
445
480
513
519
529
486
440
477
497
522
503
500
479
486
497
534
506
495
540
510
486
482
524
501
495
509
479
535
503
465
484
487
506
520
547
498
500
545
495
516
522
519
524
551
513
518
499
504
524
538
499
502
529
533
530
499
530
509
499
500
513
526
542
498
495
515
535
537
516
556
593
554
492
488
524
524
532
506
540
529
528
524
509
511
582
599
557
525
557
575
546
532
557
521
559
574
546
558
551
548
561
584
579
541
528
514
492
483
505
498
536
516
553
692
841
951
966
858
662
493
429
412
422
453
444
438
461
434
460
420
437
496
473
486
482
483
489
498
517
494
498
496
475
525
508
494
478
499
549
583
559
530
530
548
541
505
552
560
556
590
633
609
616
638
624
625
665
674
693
661
610
613
637
641
583
563
567
546
470
454
450
445
441
402
368
370
393
415
380
333
358
389
399
409
387
375
419
455
423
442
437
416
424
423
452
425
438
507
486
456
464
465
460
475
523
516
475
482
481
505
502
539
487
459
452
520
496
463
460
509
524
512
495
494
487
505
497
502
484
524
509
536
532
491
485
484
561
524
477
493
522
545
497
495
545
550
559
546
508
529
500
531
545
516
492
507
517
504
541
535
543
506
490
517
538
566
524
474
512
528
532
522
510
544
541
485
503
519
524
550
538
514
501
535
517
516
497
528
513
529
554
554
536
520
540
521
548
555
561
571
551
546
566
546
469
501
521
504
515
494
486
475
467
493
649
797
955
939
843
654
485
381
362
386
408
456
425
420
419
442
449
434
441
437
440
467
462
479
446
456
461
484
480
497
502
508
486
498
503
532
542
525
523
539
561
522
528
524
553
594
586
559
561
575
599
585
617
624
639
647
626
606
606
591
601
573
566
529
515
519
471
472
460
419
372
350
361
352
372
345
368
372
352
388
409
390
402
388
409
393
402
445
453
451
453
432
420
437
472
493
491
432
456
451
477
509
466
486
516
482
475
475
448
488
516
503
451
485
485
516
518
500
476
501
505
528
545
483
491
513
483
519
534
492
475
493
485
461
488
536
518
543
513
469
478
533
509
494
532
513
476
478
496
485
505
546
558
531
495
495
525
502
489
465
493
544
531
508
487
490
500
535
539
530
518
504
491
523
543
528
484
491
530
516
515
508
535
541
539
575
558
545
531
532
549
569
512
533
552
568
517
523
512
504
512
472
506
540
544
595
733
921
986
879
720
523
420
312
338
425
413
452
462
470
492
471
481
492
481
508
534
468
448
465
459
490
510
528
512
495
507
526
558
559
536
498
530
547
564
579
527
526
582
579
587
581
583
605
594
579
611
657
647
650
643
618
648
632
612
616
593
586
590
576
543
497
445
412
415
404
396
356
384
392
375
340
353
367
396
377
401
427
397
359
399
417
441
425
399
447
427
452
432
486
501
475
449
458
459
471
461
474
476
492
467
462
481
476
475
465
497
517
504
472
459
465
455
492
522
483
478
499
515
502
517
519
529
530
493
492
515
491
510
521
502
488
483
540
501
520
502
498
498
543
557
533
520
499
478
501
533
494
481
476
510
548
566
565
517
529
514
503
499
515
499
506
518
531
516
478
501
553
499
497
505
537
501
519
524
500
492
538
538
517
520
519
562
536
512
512
525
568
558
537
551
549
540
521
513
521
519
497
503
500
522
574
681
870
1007
931
734
556
446
358
380
439
477
465
460
487
475
454
429
470
483
525
507
469
446
475
472
525
560
543
502
523
503
517
473
527
551
565
556
558
554
563
561
570
584
560
583
615
579
618
626
629
623
625
646
655
673
696
664
677
634
592
586
586
585
558
504
521
485
431
391
393
408
392
389
391
403
369
366
360
388
373
377
403
424
420
412
412
437
419
392
421
472
441
448
469
435
457
464
499
543
524
530
488
489
507
470
496
533
497
508
485
462
500
536
535
524
505
503
496
504
511
497
521
522
508
458
471
536
535
511
514
475
500
497
520
515
521
512
491
484
479
481
510
512
494
520
543
519
512
504
494
549
498
490
491
480
487
531
524
533
516
508
481
502
547
503
503
518
499
475
484
525
515
498
493
508
532
540
500
510
498
486
547
537
523
540
527
516
510
534
569
553
557
529
547
540
559
526
483
472
480
494
529
487
470
471
443
491
640
822
964
937
824
686
502
418
384
434
462
461
407
394
422
417
418
413
414
448
473
495
451
471
506
497
496
492
506
500
474
464
522
501
513
515
496
528
580
532
552
539
527
552
583
588
565
593
596
628
589
630
616
627
660
649
660
605
625
591
623
649
594
564
529
525
491
447
427
416
393
390
398
383
326
307
352
381
367
340
373
403
433
440
433
420
436
426
419
421
435
451
425
435
473
468
469
477
477
484
518
517
488
481
502
458
463
507
510
488
520
495
466
466
493
477
547
551
502
492
495
538
552
464
469
473
488
505
513
498
527
528
532
503
513
516
468
501
550
545
487
489
477
507
524
509
484
494
526
513
544
524
546
533
528
500
518
493
488
526
523
540
509
480
515
528
505
491
504
546
547
512
484
514
477
513
525
463
497
520
575
583
561
545
538
568
558
537
547
543
526
549
550
540
546
524
508
540
525
504
507
517
499
490
489
500
570
702
839
928
909
772
558
414
340
322
374
441
435
423
463
464
468
452
468
452
485
480
487
491
481
470
457
489
509
451
486
516
551
475
503
530
532
503
490
516
516
511
540
586
587
543
519
548
600
591
594
633
620
605
619
588
607
608
632
618
569
597
564
533
555
505
488
460
427
397
403
396
408
403
423
347
327
352
345
345
377
397
387
431
433
439
412
420
427
471
450
467
471
472
510
439
489
493
475
462
468
498
501
491
486
534
511
489
494
442
493
511
533
509
519
511
468
484
516
496
487
533
525
500
495
498
536
538
468
452
461
518
530
536
504
494
489
517
520
536
544
490
474
469
518
522
514
524
500
511
509
531
471
512
556
534
525
487
500
497
514
533
516
509
562
528
488
523
529
552
528
542
502
550
557
519
488
508
537
535
548
531
470
503
555
558
590
529
554
574
579
531
552
550
545
533
537
503
473
489
508
552
503
504
500
600
729
889
935
851
763
600
428
368
408
455
448
470
509
472
462
474
443
488
481
480
457
477
472
510
515
477
480
531
561
554
552
529
547
525
500
517
479
532
534
535
556
576
574
606
581
592
594
597
585
592
625
596
593
632
652
642
646
631
636
627
620
567
571
577
523
476
406
446
435
371
371
362
379
415
364
358
336
354
372
406
393
399
373
380
396
410
441
435
403
416
452
448
436
468
478
491
460
457
497
472
447
473
481
464
510
502
483
528
509
492
489
512
460
483
513
500
505
524
515
496
499
496
503
521
514
509
515
519
486
543
522
513
512
496
489
481
515
573
561
529
509
555
504
475
522
532
532
470
507
504
507
543
538
513
519
529
530
516
507
470
463
532
564
525
503
516
538
551
555
495
485
516
542
512
508
517
507
506
548
552
530
576
574
550
568
552
560
564
532
514
509
519
535
523
503
507
475
498
485
489
563
740
946
1002
904
750
557
406
380
402
405
416
439
476
473
418
434
472
460
460
480
496
505
480
454
476
464
473
483
519
497
489
522
543
517
557
546
530
530
542
506
547
545
545
539
586
590
601
596
618
609
611
597
635
618
643
623
602
636
647
659
617
575
540
544
499
470
477
436
437
380
377
391
366
364
373
380
344
385
360
371
405
421
429
389
392
421
420
401
423
434
441
453
454
478
437
463
487
458
459
477
482
484
480
471
491
487
475
480
497
486
501
523
526
494
491
520
515
528
528
508
484
474
461
452
507
555
503
520
491
468
503
512
530
475
516
542
505
546
530
481
496
517
506
506
532
530
516
495
495
550
512
515
478
456
499
514
522
507
508
524
512
518
513
529
540
534
511
515
532
501
525
552
562
544
560
545
518
528
540
521
518
522
513
488
466
489
508
496
521
579
668
873
970
923
752
576
437
382
407
388
413
435
455
470
462
498
472
466
419
458
472
478
480
477
476
492
531
501
488
511
490
514
521
491
550
549
553
527
544
537
553
578
563
553
535
577
590
576
575
565
603
653
647
682
648
649
644
636
659
629
596
547
540
510
502
475
452
447
441
420
383
345
341
352
366
387
385
375
414
409
377
366
377
414
439
430
413
427
428
433
458
460
468
463
461
484
493
432
449
487
470
487
493
484
494
490
483
494
487
501
499
490
499
483
504
475
472
511
489
506
535
484
468
501
522
523
474
493
532
508
484
481
520
551
512
525
507
514
501
493
511
500
512
539
539
505
510
528
521
507
491
513
499
492
510
524
523
524
553
560
517
519
537
581
540
534
535
563
521
509
538
518
524
519
479
443
443
479
516
521
519
467
588
701
879
952
897
723
542
404
362
374
416
422
425
420
435
431
429
453
441
474
478
446
443
443
466
512
535
503
487
487
507
497
507
499
501
455
503
537
548
514
517
535
573
587
595
537
585
569
610
589
612
620
637
667
636
627
652
680
652
627
630
635
588
525
506
503
513
466
419
443
380
370
400
416
356
370
351
402
425
418
357
408
435
405
420
438
426
430
428
474
476
421
415
426
488
490
507
509
471
493
497
503
485
490
473
516
536
521
487
483
462
485
517
499
478
509
522
484
483
512
511
520
460
495
541
520
489
504
509
508
506
458
499
506
495
490
524
528
513
528
506
494
519
511
494
524
507
484
473
523
543
553
500
518
537
540
529
514
521
531
515
520
538
517
537
523
535
563
557
540
542
551
584
567
477
498
528
534
518
493
487
494
478
519
491
518
584
776
934
1004
852
651
451
340
360
387
422
435
445
439
459
486
468
453
430
490
501
481
475
474
484
465
481
491
500
512
521
515
503
481
509
499
519
579
563
535
543
547
545
556
556
589
642
622
586
576
574
600
636
668
630
624
632
628
642
627
592
546
541
533
546
513
501
459
413
381
396
388
355
338
332
365
366
374
373
407
371
357
418
399
437
423
408
442
477
441
418
414
454
462
483
482
507
497
468
441
451
475
478
438
435
493
518
496
448
467
498
525
473
480
481
555
521
482
464
482
493
522
520
538
466
529
486
501
527
509
506
505
478
505
513
513
509
514
532
513
509
536
498
501
543
552
507
524
554
515
504
525
540
524
519
523
522
550
540
545
536
556
572
553
544
531
519
495
542
586
574
546
535
538
557
554
569
499
453
494
509
499
524
648
823
951
960
828
653
475
365
364
444
425
435
431
487
516
514
491
481
481
462
488
508
510
514
507
504
479
486
496
543
502
519
509
566
572
546
543
566
593
536
553
572
571
550
548
599
609
620
605
591
620
662
644
631
654
637
634
626
645
644
628
564
564
558
536
511
463
462
434
396
403
388
389
389
401
373
363
366
396
384
417
440
380
399
404
452
495
461
406
433
464
456
461
459
506
489
482
488
458
465
480
476
493
490
472
504
496
508
475
516
508
481
475
496
505
487
507
479
485
507
550
524
539
505
522
507
521
509
498
545
525
543
481
505
526
548
536
517
519
521
541
540
530
506
494
553
565
554
513
503
525
515
525
516
504
534
563
525
538
522
519
533
545
570
542
526
511
485
534
564
540
562
590
558
543
547
563
567
562
547
505
501
484
501
510
491
518
519
579
684
857
975
962
833
648
447
364
371
393
429
459
449
439
431
420
454
448
490
468
451
480
452
473
520
499
520
510
516
507
493
531
517
520
561
562
505
512
487
516
561
586
556
554
598
595
553
610
598
632
615
610
595
614
651
627
632
634
640
598
610
645
594
516
480
482
469
457
417
386
379
370
355
366
374
396
416
403
393
372
359
408
393
406
413
438
413
416
439
437
481
485
428
424
404
432
487
490
451
457
458
457
448
485
520
488
467
473
513
459
451
462
453
441
479
519
495
498
485
487
484
508
491
487
484
491
489
454
448
476
517
512
507
477
485
494
486
504
510
495
504
482
460
479
505
532
519
502
495
488
511
511
498
525
513
486
487
469
487
515
490
523
541
531
534
523
479
455
502
528
501
466
518
539
518
543
517
522
528
528
538
522
521
511
493
469
480
502
482
468
479
470
459
545
658
870
1005
893
694
531
420
375
351
398
426
430
463
477
430
416
402
435
465
466
471
462
459
467
469
482
459
492
468
467
528
532
521
505
502
510
519
519
535
564
536
571
581
570
559
569
614
621
588
553
563
595
650
617
613
602
615
627
610
595
607
563
524
501
480
472
423
377
383
386
403
395
335
328
379
372
376
412
392
413
389
403
391
426
424
426
420
451
450
476
441
438
441
456
464
484
519
493
475
496
529
513
471
486
508
518
476
512
495
490
517
489
481
492
507
496
490
505
527
498
512
500
496
510
482
540
516
501
530
477
471
502
527
517
501
492
503
499
517
533
509
521
513
482
489
538
563
526
493
476
492
537
532
544
533
522
502
540
496
504
479
523
550
542
493
495
504
511
532
542
565
555
543
549
512
545
564
527
524
539
529
546
549
553
523
495
507
510
507
493
484
478
553
657
790
899
935
807
634
485
394
360
408
447
466
487
467
508
497
453
425
424
482
537
488
494
474
500
500
512
496
537
534
522
542
500
510
538
534
525
523
570
587
573
577
554
563
587
581
581
595
645
616
629
619
639
651
672
638
651
659
603
611
610
618
588
550
542
521
495
461
456
433
412
392
362
388
419
389
339
363
396
446
455
423
433
422
434
415
444
467
440
448
429
433
463
477
501
494
518
491
488
504
497
486
519
513
482
500
525
477
467
467
494
520
514
516
512
544
480
502
480
527
517
519
508
500
513
535
538
494
492
518
522
492
503
532
539
504
485
470
496
524
536
530
533
521
513
538
485
517
535
515
512
499
481
541
531
509
494
497
524
536
546
488
518
538
488
512
538
531
505
519
553
528
539
540
559
582
552
516
491
500
545
557
553
534
541
565
547
563
548
550
550
557
489
507
504
477
533
488
484
498
594
737
913
1007
927
765
593
484
401
403
419
417
452
435
454
462
450
475
484
507
484
439
476
494
485
475
488
487
449
489
496
537
528
532
537
526
517
518
532
552
533
550
541
581
574
543
577
562
563
599
638
644
604
629
653
632
664
648
641
632
637
599
551
527
528
508
497
469
395
383
410
411
387
393
396
346
364
366
382
374
411
398
411
412
392
406
421
444
446
445
457
457
445
467
462
461
447
484
485
447
455
480
492
447
455
469
499
503
491
464
497
522
522
493
500
468
446
465
504
438
475
492
521
532
508
476
481
493
495
510
512
532
493
496
488
494
485
473
509
512
519
506
509
517
506
502
499
497
486
497
499
510
505
492
496
506
523
519
529
534
512
501
506
530
508
495
518
499
530
528
482
497
495
517
522
511
503
518
516
540
523
491
487
515
538
538
531
539
529
538
566
563
538
512
456
476
463
504
521
495
482
458
460
542
642
824
984
975
772
570
456
336
322
383
393
421
437
452
456
417
405
430
475
489
473
505
518
508
531
523
464
431
458
486
526
543
521
494
513
512
506
537
550
528
560
543
529
553
545
566
568
590
597
584
608
602
607
633
624
632
614
625
636
630
630
593
546
532
504
485
472
490
440
415
408
390
392
391
386
373
380
393
391
380
406
408
404
448
459
490
453
436
423
472
451
441
488
499
469
490
454
427
493
529
483
494
480
493
448
461
495
510
515
491
497
467
494
502
495
480
511
494
498
484
472
564
492
493
480
494
524
510
509
507
535
512
522
498
494
515
493
481
478
455
493
523
520
532
518
537
506
467
478
504
517
515
508
490
512
491
507
495
503
492
499
522
506
462
511
504
493
502
495
506
541
502
486
498
550
543
480
481
547
541
514
568
547
561
538
520
516
519
510
587
570
554
550
545
555
543
572
547
535
534
543
489
480
522
510
536
490
508
569
773
956
1009
849
671
522
423
386
399
430
434
449
481
498
479
417
443
439
493
512
492
452
479
495
489
499
482
541
520
514
544
530
538
528
489
530
535
557
556
558
551
549
561
613
601
611
610
582
578
605
613
645
658
644
643
681
634
621
634
636
619
569
589
573
532
503
452
414
420
401
412
398
403
384
385
377
366
371
363
397
447
426
393
400
382
415
418
435
457
428
456
460
457
424
443
440
471
465
477
494
499
516
491
483
463
436
457
500
495
495
509
445
433
518
512
519
501
524
504
486
503
506
500
489
528
531
481
473
491
542
545
498
518
495
492
509
516
527
542
511
540
516
522
496
516
557
552
559
516
527
520
515
538
554
548
518
489
509
517
521
528
539
524
509
521
520
521
511
523
540
514
522
494
520
539
516
535
539
500
509
528
514
490
501
517
549
547
566
505
522
549
557
545
509
541
541
525
550
562
550
565
534
520
526
522
506
509
520
468
484
504
480
493
594
758
882
988
920
745
559
420
434
432
378
392
417
458
444
446
470
445
455
456
448
456
452
484
473
486
496
447
469
490
482
511
492
512
505
497
510
550
554
550
517
533
547
511
530
562
573
564
595
579
599
627
625
585
639
668
676
659
624
630
586
561
537
541
543
514
517
456
456
434
425
380
368
354
356
357
359
384
356
391
364
374
386
398
442
434
419
400
416
427
425
421
436
429
446
489
485
489
478
487
465
498
492
486
471
464
467
480
467
455
496
477
482
486
520
477
477
497
516
495
495
512
462
499
456
508
484
477
501
531
498
491
500
508
524
472
452
479
527
527
494
471
475
482
503
483
501
540
528
503
507
546
502
475
491
488
496
502
508
491
504
507
536
523
519
521
497
475
533
571
488
457
488
490
519
505
486
518
525
496
501
515
507
534
576
548
525
498
519
484
493
532
519
568
571
547
541
526
529
508
511
468
508
506
444
449
474
461
555
658
801
952
908
756
595
429
360
332
342
425
470
476
480
502
527
499
458
474
465
488
490
479
499
460
473
493
500
506
502
500
480
504
529
523
504
517
522
491
525
542
545
567
577
561
535
563
571
610
583
571
601
626
633
647
638
616
607
612
637
585
587
571
545
507
459
440
428
446
412
421
377
372
367
367
348
373
406
408
393
404
410
390
352
415
447
434
457
437
428
462
464
468
453
494
483
469
482
458
469
466
509
518
492
475
489
525
488
509
494
491
505
501
498
469
499
501
508
513
515
542
536
490
496
521
522
510
514
518
541
486
494
537
552
548
533
531
531
506
486
522
518
507
510
521
529
549
533
536
539
497
523
535
571
563
508
550
554
495
503
534
547
533
536
545
522
532
543
566
565
555
547
498
510
549
532
510
528
524
520
553
586
560
544
525
553
548
555
568
568
539
548
548
529
517
518
545
535
531
500
515
489
487
498
613
784
946
969
855
660
512
392
384
429
443
469
447
439
446
481
454
456
484
515
549
510
501
449
508
528
503
490
532
524
489
487
528
556
533
547
538
550
561
546
572
594
594
535
528
586
611
625
610
589
612
594
662
647
643
658
668
663
611
621
624
594
585
566
529
459
446
425
443
475
419
412
416
375
373
347
355
379
413
391
386
371
417
385
417
423
431
431
459
449
460
438
427
451
470
482
486
486
467
445
476
506
506
504
499
489
471
493
475
490
512
521
478
437
439
513
504
527
497
494
508
478
491
521
487
471
510
477
514
500
499
516
498
514
481
515
509
482
523
509
481
485
494
488
480
496
524
521
502
523
533
493
503
511
518
520
494
468
502
521
522
454
492
536
561
549
528
478
517
490
488
495
499
502
486
523
517
529
484
481
514
509
542
531
514
513
520
541
521
499
523
560
539
523
541
555
522
483
486
494
501
486
468
493
501
473
517
652
792
966
976
802
644
490
382
370
422
422
427
404
437
482
452
451
416
461
474
472
482
468
465
461
486
499
477
466
485
491
491
525
522
525
556
503
503
519
558
548
559
568
556
543
566
576
584
595
608
594
561
589
627
638
677
659
613
580
567
604
574
578
556
529
522
473
468
434
418
382
371
335
355
377
354
354
369
369
381
415
439
380
402
431
427
446
439
428
411
432
454
468
456
470
486
476
444
487
509
483
444
518
481
433
471
499
492
485
502
501
502
482
484
472
491
520
495
503
491
493
522
512
489
487
479
497
486
513
497
517
510
484
494
532
497
493
526
526
516
494
507
531
513
505
473
495
498
523
559
531
495
440
514
559
506
491
469
510
514
505
488
529
558
519
515
502
536
516
521
512
493
532
542
557
517
515
516
507
538
531
510
532
527
521
541
532
536
534
528
528
526
472
509
519
538
502
489
477
470
460
492
502
523
583
674
839
962
865
669
494
383
359
408
404
399
427
442
448
442
437
461
472
498
489
446
493
510
484
480
502
506
481
508
506
509
512
495
512
548
557
516
507
546
552
579
566
555
555
567
594
585
611
613
607
640
666
599
608
637
590
632
620
609
615
590
589
587
565
516
485
462
454
427
424
406
425
399
376
373
368
381
405
395
428
442
460
417
427
432
455
478
456
441
438
444
498
469
460
485
459
494
503
495
487
468
492
502
520
495
485
498
460
468
475
508
528
529
502
528
504
495
496
485
490
464
506
550
530
548
522
518
508
538
553
486
457
477
530
519
518
554
543
556
480
541
536
558
501
493
537
510
485
463
502
530
525
494
499
519
541
527
488
526
532
525
506
498
546
547
539
498
507
517
530
552
542
545
553
572
530
526
539
525
541
527
514
563
585
582
569
508
471
491
514
512
482
526
497
491
520
708
830
916
933
809
612
453
388
371
414
452
473
470
448
461
481
434
466
532
493
454
502
467
493
482
493
508
529
501
505
534
518
530
530
498
516
538
517
522
539
570
594
600
542
552
573
589
583
591
595
620
622
625
656
647
632
632
634
658
613
592
545
546
523
534
531
474
461
422
394
371
403
411
402
373
362
339
347
365
368
383
440
415
415
420
458
443
419
419
449
445
449
428
478
487
436
477
510
500
501
505
490
486
496
502
479
487
457
491
489
482
481
473
497
495
468
456
486
508
498
512
509
489
496
468
512
527
504
524
501
467
491
483
455
501
532
535
523
516
514
519
518
510
516
463
507
536
510
470
489
515
507
500
487
512
525
523
557
544
512
480
496
531
521
516
501
509
489
509
523
505
529
513
494
514
505
507
524
537
526
497
536
542
533
531
558
521
527
504
547
538
530
553
529
503
480
473
511
501
512
511
463
497
571
737
874
921
844
731
540
380
368
383
407
436
432
475
429
438
411
423
435
494
482
479
431
462
437
481
511
510
475
502
468
543
500
530
543
522
554
517
525
514
535
555
551
570
550
577
572
595
606
594
583
596
607
653
673
664
666
632
619
612
613
609
580
551
516
515
459
431
415
407
393
388
409
367
382
379
388
408
355
388
419
397
415
413
428
402
425
420
459
430
441
453
442
499
502
471
457
464
463
473
466
493
475
489
465
470
473
546
513
499
498
501
475
492
542
530
520
481
504
479
455
459
484
505
507
516
503
522
509
533
537
501
457
495
530
486
516
470
502
523
477
492
510
531
544
509
514
528
537
525
492
482
486
500
497
492
483
506
508
520
521
512
513
496
512
504
486
532
545
519
521
499
487
516
500
508
525
536
493
488
527
512
510
521
512
497
521
528
517
523
522
531
533
528
514
529
558
548
548
576
521
511
525
517
515
513
517
525
463
478
487
477
491
548
640
786
957
934
792
629
491
357
332
380
433
421
440
446
417
439
470
458
440
434
474
457
450
461
490
486
509
492
485
481
477
496
497
489
524
528
505
494
541
532
570
519
543
566
553
526
565
561
608
586
602
587
573
632
643
606
615
618
589
617
613
588
541
535
507
473
454
462
437
453
445
418
397
385
396
391
375
353
365
380
400
417
412
410
384
449
470
462
470
464
447
429
467
463
475
477
496
445
459
494
494
477
502
508
506
485
496
494
466
486
518
509
498
515
500
519
461
483
498
479
490
513
473
510
508
516
494
498
514
533
541
515
505
483
470
498
516
535
504
499
502
513
531
482
467
533
546
537
501
492
520
551
528
491
517
515
506
505
498
533
543
557
500
501
527
521
535
520
496
530
532
507
512
518
537
540
505
545
565
549
506
506
540
549
517
536
546
526
542
580
579
591
550
536
519
522
565
550
539
532
507
492
519
522
541
523
557
659
812
921
948
874
673
474
366
341
385
478
455
463
466
474
532
535
527
518
514
476
501
482
451
454
487
517
523
513
507
517
558
541
563
568
541
494
507
553
556
546
558
543
541
574
607
597
607
593
610
615
624
623
640
624
637
630
620
623
655
627
591
584
566
548
529
505
426
420
418
411
385
379
391
370
347
344
380
391
441
418
399
385
413
394
430
436
437
445
456
452
480
476
475
448
464
493
474
473
482
500
496
487
486
481
465
497
512
524
515
521
513
463
462
462
487
509
504
522
531
515
507
500
510
527
520
528
541
505
482
484
517
510
489
547
576
547
524
520
498
512
561
550
515
494
492
496
476
508
552
529
494
485
507
529
539
548
543
496
540
548
495
481
511
521
514
517
524
512
534
520
542
525
531
526
528
525
468
484
507
524
532
529
546
499
538
504
518
506
542
529
550
545
542
529
549
569
567
554
540
506
474
473
500
506
500
493
518
495
484
595
744
928
970
864
718
565
421
362
359
440
446
430
444
453
454
469
472
449
450
454
478
472
476
499
498
487
486
483
480
500
536
545
571
530
486
505
531
526
559
587
548
562
564
556
542
558
548
570
605
633
619
601
625
656
636
613
647
652
640
571
552
597
560
501
465
471
485
431
435
404
388
393
343
370
359
333
368
393
388
394
376
419
414
418
420
419
398
431
447
435
459
449
440
436
456
482
458
471
480
492
502
475
460
473
489
479
468
494
512
504
513
460
474
459
497
487
485
474
498
478
487
506
516
499
500
509
499
507
483
456
447
491
524
512
492
464
483
497
526
516
506
528
523
516
528
495
501
493
524
488
474
462
518
537
530
529
533
533
517
529
522
500
519
503
480
490
481
504
522
524
504
488
498
507
513
532
539
516
492
542
527
520
496
481
510
467
527
569
531
523
502
525
563
573
533
496
542
554
576
577
522
499
542
530
512
496
491
497
500
494
482
513
632
818
957
919
816
654
476
368
361
411
414
440
471
451
428
437
456
448
474
439
458
486
460
476
496
497
489
499
500
483
516
512
510
516
504
490
532
494
515
524
530
555
551
565
573
579
550
595
594
575
583
558
596
624
633
623
624
617
623
592
592
573
564
539
513
461
429
442
449
402
370
382
372
396
352
374
375
352
364
369
395
408
353
399
413
416
432
432
430
432
422
466
454
432
454
459
446
475
477
496
507
475
464
448
458
446
495
512
522
484
498
488
449
461
483
519
483
533
493
475
488
477
470
491
514
519
497
492
484
521
546
538
487
490
469
515
545
513
476
503
515
515
507
494
530
510
531
546
543
501
500
509
494
510
535
504
518
508
482
501
542
569
529
500
525
550
532
492
474
510
525
524
517
522
517
545
548
528
516
534
539
549
527
514
544
514
527
580
581
567
547
545
539
546
548
515
497
509
509
508
482
490
494
510
612
791
913
956
854
674
500
409
387
355
407
438
473
484
479
468
429
490
502
500
491
450
492
492
488
503
508
489
517
506
506
548
535
519
520
513
553
524
514
510
549
539
532
545
573
557
567
607
620
616
582
605
662
698
660
594
624
646
629
643
602
581
598
567
502
494
498
481
455
436
400
407
380
382
399
413
385
404
442
423
369
386
393
387
391
435
471
429
441
456
491
443
449
493
486
492
485
503
463
450
442
512
508
494
479
474
481
504
512
499
525
498
525
527
539
503
491
516
494
495
490
500
536
532
528
520
527
496
531
503
504
485
489
530
529
500
545
536
525
502
508
532
496
528
491
504
561
533
521
513
524
517
521
554
530
526
531
501
512
501
515
544
530
518
532
519
527
535
494
530
539
544
507
488
514
526
491
519
548
523
549
531
518
526
515
511
527
558
535
510
533
502
512
529
548
575
531
555
559
554
574
547
524
532
517
466
491
491
516
490
465
467
541
680
905
990
924
790
633
434
383
384
412
401
436
483
458
411
466
478
457
475
478
494
507
502
464
500
491
487
500
487
513
526
522
490
526
526
541
560
561
528
534
574
574
560
557
533
544
583
591
596
616
643
660
634
648
624
637
656
620
616
623
625
642
578
534
488
493
468
412
406
404
400
376
374
398
374
363
340
384
398
396
373
351
395
412
401
442
439
437
451
430
441
404
420
472
464
472
490
495
473
480
453
464
467
466
484
494
524
520
513
493
452
485
521
498
502
518
483
447
466
509
508
505
496
486
489
491
481
471
515
511
515
530
526
523
488
477
499
481
470
499
504
508
485
500
516
491
497
493
514
490
519
487
494
506
489
508
510
508
513
521
535
481
482
503
515
498
485
515
487
502
490
496
515
516
478
434
478
521
511
514
527
505
499
499
493
500
475
482
508
513
547
501
493
495
510
500
500
519
539
581
549
540
505
546
551
516
541
529
499
497
512
490
479
506
506
481
484
528
613
665
816
920
914
798
614
446
359
402
419
387
427
458
460
467
459
454
479
471
449
432
417
495
477
468
484
487
447
494
503
508
510
510
523
554
547
530
550
523
502
497
504
514
540
551
550
579
556
585
561
589
618
620
628
637
593
605
623
615
608
582
530
559
545
514
481
445
453
441
426
414
396
385
389
363
386
416
384
368
369
376
421
417
389
378
435
427
460
531
488
438
442
419
440
486
520
483
448
459
494
512
472
493
500
503
535
533
480
482
488
466
494
507
488
525
486
495
503
498
510
498
507
500
469
493
519
482
501
510
517
469
502
526
486
502
504
521
490
538
504
512
487
485
473
487
507
509
495
510
528
501
479
493
522
540
524
499
485
466
510
504
506
474
491
514
511
558
532
534
512
507
485
493
524
522
534
503
503
526
487
465
493
488
523
548
552
502
521
541
492
525
520
538
534
528
548
495
481
542
549
553
515
528
539
539
566
537
503
524
526
529
508
503
484
506
484
498
530
546
625
811
941
931
785
595
460
398
334
379
419
481
481
494
443
466
487
548
545
506
462
429
460
525
519
527
525
530
534
488
473
502
562
536
545
561
532
541
549
589
551
521
535
601
596
599
595
571
580
639
635
619
623
626
651
657
633
652
646
613
598
591
587
569
591
545
485
438
429
402
389
380
411
427
412
435
378
371
380
387
443
435
400
387
410
414
433
452
458
428
460
477
472
457
519
492
450
457
439
471
488
498
510
490
496
473
490
482
487
498
495
498
493
448
478
471
491
494
519
507
449
502
517
518
530
501
477
499
512
489
503
506
513
508
508
505
468
460
501
535
542
530
501
493
526
496
501
515
491
512
538
523
519
506
509
494
516
504
514
538
510
496
488
518
520
496
510
543
517
525
522
531
516
518
523
527
518
484
504
515
517
520
495
512
476
489
542
549
494
537
553
554
525
522
495
522
472
487
537
501
503
527
519
523
524
535
531
554
556
552
534
533
512
518
555
581
559
516
504
520
479
496
493
493
495
496
560
692
873
983
902
755
586
427
388
401
386
427
447
445
455
459
469
463
440
434
482
494
481
508
457
486
487
461
480
506
494
490
514
529
541
524
535
533
503
510
544
560
556
557
566
542
581
606
618
614
600
572
622
608
625
655
649
642
638
626
610
582
589
573
547
504
478
496
451
451
394
399
380
375
401
386
381
379
381
382
379
383
369
386
398
424
419
452
443
427
433
442
440
447
484
470
430
435
458
486
501
536
518
490
503
496
489
474
464
468
482
501
520
494
443
462
474
499
495
525
520
499
509
497
475
476
498
498
488
517
520
498
504
518
505
494
454
520
527
502
530
499
497
516
495
491
483
492
541
543
476
495
524
489
518
505
494
507
502
496
518
521
498
481
489
507
495
508
494
510
502
506
469
487
527
521
500
533
529
488
475
468
467
475
502
536
486
517
484
495
507
500
514
522
524
505
493
514
523
516
513
478
462
466
494
520
538
552
534
547
534
538
527
513
509
545
520
533
548
515
477
476
465
515
511
508
493
464
468
528
701
872
938
872
777
585
454
382
362
414
426
436
430
440
463
460
420
442
420
427
480
439
467
487
472
495
487
510
512
506
478
466
501
543
524
542
542
531
507
538
562
550
510
539
586
605
593
597
578
609
607
599
634
645
666
663
646
617
618
588
580
573
589
568
524
508
480
473
450
417
379
364
350
377
402
360
346
348
349
366
391
421
431
414
407
441
441
410
390
454
442
443
460
454
444
486
502
482
450
459
488
485
489
490
501
434
454
481
463
477
521
496
462
489
507
521
515
486
516
517
496
523
487
468
480
452
510
538
520
499
481
494
510
545
500
502
515
522
523
526
527
502
485
488
509
518
530
536
523
487
480
503
541
532
534
510
517
499
499
518
513
489
493
507
508
528
511
479
536
520
489
517
515
475
482
536
547
546
555
520
499
501
509
520
507
478
505
512
500
520
503
509
518
488
583
551
472
514
522
483
541
580
558
556
546
566
556
513
527
476
506
524
515
561
540
516
505
500
498
516
496
508
540
553
660
814
905
883
756
597
440
371
364
394
425
452
456
479
481
500
439
439
485
524
500
477
493
515
480
496
513
497
493
501
511
536
562
540
556
532
555
531
522
545
580
597
582
584
559
582
586
611
584
605
622
623
629
655
670
650
626
670
683
654
613
600
588
553
530
494
506
466
435
443
437
414
398
401
409
398
391
413
359
391
406
401
431
465
450
418
455
468
487
509
465
462
464
507
494
501
509
500
517
529
502
494
503
506
522
509
525
524
514
513
483
494
525
503
488
528
520
506
473
521
521
519
533
538
543
504
514
545
492
473
505
499
515
504
474
496
533
542
538
489
525
527
502
488
505
540
516
517
514
506
469
490
520
531
541
527
492
514
515
495
540
535
536
531
559
508
503
541
520
512
515
493
522
526
528
513
527
520
500
516
529
521
492
517
520
503
501
504
525
519
531
524
533
521
485
508
518
523
492
523
540
528
550
545
533
471
529
580
571
545
493
517
529
532
576
570
530
496
497
524
493
499
482
487
496
523
571
638
783
964
985
859
717
506
398
385
418
418
432
450
491
477
432
456
484
505
492
455
436
502
499
482
482
471
483
487
491
517
534
508
517
523
540
530
520
518
517
514
524
568
547
581
556
539
571
628
574
573
610
628
608
604
644
627
634
639
619
614
591
559
578
560
463
451
438
426
416
408
406
375
324
336
375
378
364
357
404
367
365
348
409
407
421
423
430
429
407
401
430
451
476
445
451
397
429
495
463
472
475
493
469
423
422
444
451
480
528
486
474
469
490
488
475
514
499
493
486
456
451
464
501
503
508
510
469
510
515
510
447
492
528
473
488
474
495
494
502
492
481
494
498
497
511
514
491
496
470
471
500
551
530
488
516
470
509
505
505
497
445
486
490
496
524
520
495
513
501
483
506
498
509
522
522
508
492
506
492
523
498
497
479
491
486
476
530
488
540
540
550
496
507
509
511
525
501
471
474
510
504
540
502
496
506
512
510
515
521
531
525
546
527
523
520
533
580
572
562
514
515
556
519
520
480
492
538
532
506
518
482
515
617
814
953
945
810
663
522
389
350
373
404
465
458
468
443
464
449
452
463
458
488
503
474
421
465
481
495
512
519
529
523
533
539
510
522
552
508
525
524
546
530
548
555
545
536
546
602
644
621
635
597
592
637
636
645
638
634
602
585
622
640
622
627
613
540
542
475
462
413
451
401
406
435
362
380
424
401
358
371
396
369
393
420
455
426
390
433
455
409
421
423
414
477
515
450
435
460
495
512
499
445
483
530
516
487
458
483
502
510
502
524
475
479
472
495
501
500
503
506
451
488
520
497
482
512
485
497
518
510
499
512
523
542
525
504
514
499
523
489
483
524
532
509
501
522
515
488
512
515
515
508
525
518
526
518
506
510
503
501
527
530
525
496
508
529
512
511
545
542
519
484
525
548
556
554
538
525
541
547
572
549
523
519
535
543
508
541
550
537
545
541
532
534
514
505
517
544
533
562
524
518
538
539
526
535
535
563
539
556
541
549
522
523
532
562
542
531
524
520
528
486
482
456
505
501
520
558
603
810
902
924
759
584
463
365
384
396
433
454
465
440
426
442
480
470
443
409
429
461
510
501
472
489
488
523
534
510
515
489
456
548
530
527
527
539
535
531
540
546
557
541
554
589
625
585
577
587
590
594
607
633
661
646
638
635
632
601
534
579
545
561
558
532
519
451
438
419
389
382
361
387
369
349
356
381
387
350
332
372
457
422
386
384
384
398
437
457
459
476
439
458
430
464
461
463
463
489
498
501
503
496
516
494
497
520
534
495
498
505
517
506
480
490
516
512
502
490
477
493
490
496
491
520
514
539
522
515
485
494
520
521
494
492
473
493
528
528
485
481
513
478
481
501
563
537
507
488
527
551
525
467
492
470
508
508
521
565
510
478
496
503
540
544
527
492
483
491
553
536
493
468
489
536
517
537
514
496
547
528
560
540
503
509
554
531
492
504
513
481
536
536
534
518
528
533
538
511
527
513
489
536
558
571
514
519
523
528
527
542
564
594
548
577
551
530
529
563
559
525
536
513
472
493
475
491
480
488
510
650
804
942
930
862
701
527
428
384
431
491
458
429
464
460
454
489
459
475
516
480
481
467
485
486
485
483
528
531
487
486
518
465
488
541
542
548
547
567
537
539
557
583
569
588
539
562
605
627
615
619
647
635
631
629
603
628
638
662
637
646
647
605
592
537
491
481
468
474
432
401
387
378
366
368
371
336
412
422
403
369
375
401
417
395
416
456
475
409
411
424
440
426
451
461
453
490
454
445
465
462
464
463
500
523
496
506
452
460
501
476
451
449
466
509
497
492
488
500
454
455
474
488
510
510
483
458
486
513
478
478
479
500
522
544
536
500
473
469
464
487
501
504
509
472
486
494
527
517
490
454
485
485
530
535
510
484
486
500
494
480
537
539
485
441
434
484
462
471
511
513
509
526
543
544
489
446
469
481
517
489
473
504
477
473
486
499
525
506
540
518
502
517
532
475
444
495
496
496
503
503
512
523
520
501
476
512
523
533
558
525
496
487
477
496
523
522
514
501
472
486
509
522
476
487
476
463
467
480
539
702
867
918
832
664
484
352
316
333
394
407
455
440
458
423
413
431
451
465
463
462
467
467
452
502
473
507
530
498
503
520
535
546
520
524
538
540
529
548
563
551
535
551
576
584
557
559
610
612
566
598
619
622
636
636
656
665
651
603
585
615
549
549
530
530
523
480
457
418
406
389
403
394
396
385
396
365
373
407
387
385
421
415
423
420
438
424
443
445
461
461
488
497
487
463
491
473
482
460
479
530
493
482
485
493
504
502
498
503
490
501
508
502
498
505
515
509
533
539
476
501
509
499
471
492
530
526
532
526
521
468
516
538
560
548
519
508
513
500
501
517
519
530
523
518
541
546
528
537
497
529
538
525
525
515
487
505
553
526
524
546
545
554
523
533
525
515
540
551
548
525
488
504
524
542
559
568
552
502
519
548
561
519
499
504
539
560
550
524
533
515
514
541
536
556
561
552
532
560
546
545
547
529
483
513
601
584
551
518
528
538
510
490
538
565
539
482
482
502
470
492
667
887
967
926
751
588
425
364
345
393
450
487
443
431
405
411
457
475
477
464
452
470
483
470
452
488
507
516
484
476
496
496
509
474
520
524
557
534
545
553
534
555
554
582
557
564
602
595
594
589
575
604
594
616
641
629
620
612
627
638
593
599
571
567
509
473
453
459
428
376
406
407
414
371
347
337
367
388
400
399
404
408
392
417
444
392
423
428
426
437
472
472
482
485
465
453
470
463
473
491
495
547
522
450
480
474
458
491
519
504
500
509
482
489
451
439
490
523
536
515
505
488
503
508
506
489
505
512
485
494
537
540
542
529
500
463
470
515
557
539
506
481
474
501
534
526
512
507
494
511
524
534
528
515
518
518
485
477
523
488
504
529
544
545
521
520
503
503
497
514
531
539
494
517
499
481
468
493
527
539
490
516
534
540
540
516
507
484
522
536
504
458
507
568
557
521
523
506
550
557
527
496
513
508
529
538
520
555
578
536
499
485
524
527
494
525
497
496
505
546
702
901
975
921
801
637
455
394
428
481
453
482
481
452
436
442
473
480
466
490
498
498
496
521
520
509
488
496
485
509
507
527
547
542
517
547
543
517
530
554
544
560
525
545
576
568
596
601
600
605
614
598
609
606
615
621
630
621
625
605
621
608
531
501
523
495
470
426
394
390
352
377
379
353
343
353
380
377
363
388
394
384
424
407
430
402
388
414
443
444
415
428
452
434
447
464
475
457
473
506
516
501
495
458
480
479
456
472
505
491
503
478
451
451
470
547
508
522
499
479
503
480
453
485
477
472
520
497
516
512
546
527
479
485
466
477
460
496
504
487
500
505
501
495
473
486
479
510
501
486
499
513
505
460
472
469
481
539
519
485
524
503
505
487
478
489
477
487
499
505
513
505
500
533
530
505
507
526
506
519
511
513
529
505
500
498
521
514
483
501
531
542
501
502
510
498
507
505
491
539
528
506
503
515
529
530
535
500
505
509
492
499
534
509
480
462
477
484
451
438
492
490
523
656
804
946
844
686
526
408
353
355
381
435
466
482
449
406
406
438
455
474
476
481
499
460
471
486
502
494
517
492
497
517
520
491
490
529
553
544
518
526
541
560
529
521
537
571
565
577
613
619
582
584
606
628
600
627
629
613
639
611
651
632
579
530
504
532
538
472
487
424
457
395
350
348
363
406
412
404
376
345
384
412
441
443
415
425
447
431
456
439
451
474
472
444
465
495
489
496
487
466
466
472
518
536
514
518
507
460
487
520
526
526
516
502
500
513
522
476
498
539
506
460
489
478
489
511
519
576
555
523
520
538
554
531
530
520
516
512
512
551
525
550
538
514
526
522
533
551
505
530
529
517
532
532
533
539
569
548
543
574
519
509
507
538
521
530
549
559
535
513
528
559
547
541
546
553
570
554
513
527
558
588
563
544
532
570
577
579
505
543
542
567
598
552
554
528
555
563
572
551
568
555
531
551
536
568
536
529
550
588
557
537
515
472
498
533
492
489
464
455
568
753
894
950
875
703
530
399
373
347
404
470
479
432
426
427
433
455
455
466
488
468
470
504
504
526
480
473
495
510
517
479
456
524
542
573
525
516
531
536
537
564
583
521
554
580
601
577
543
588
613
607
593
606
616
629
637
618
639
622
602
610
597
602
582
506
451
422
404
404
401
406
384
391
391
354
376
408
380
360
397
377
397
396
351
380
401
416
470
454
466
456
463
432
450
460
446
494
471
469
483
488
458
453
489
494
511
514
516
469
497
526
510
519
484
511
479
440
479
502
499
526
517
498
503
499
498
472
495
535
519
455
500
512
526
544
531
494
489
507
499
525
513
518
516
490
484
501
502
490
516
506
482
488
504
520
525
514
529
526
551
516
485
460
474
491
548
514
511
499
545
555
528
487
510
548
534
522
498
503
528
516
498
516
497
496
518
523
519
499
512
493
501
489
509
562
532
473
494
513
491
487
482
491
527
537
538
537
497
531
528
533
532
505
534
552
550
550
552
544
514
551
543
538
535
558
566
507
501
545
497
418
488
477
491
520
659
842
964
943
822
655
492
431
441
417
432
438
436
417
433
438
453
466
423
481
494
486
492
519
530
492
478
491
477
478
477
503
514
531
532
534
525
525
516
539
550
539
545
527
571
588
570
592
600
613
594
619
631
653
659
615
614
626
640
631
596
634
598
580
565
534
474
458
447
424
406
403
392
381
387
359
330
329
361
396
417
405
435
401
392
432
429
403
413
407
448
446
426
447
466
448
429
454
465
537
496
460
455
465
448
443
466
479
500
493
458
501
473
500
495
486
481
461
470
465
470
500
486
526
529
506
463
477
480
499
499
508
491
488
489
490
506
487
515
534
492
506
493
490
533
496
479
498
520
521
488
494
480
500
515
509
539
533
492
531
502
509
477
501
550
545
523
484
512
529
540
505
513
506
534
501
532
499
504
512
537
497
500
515
540
512
539
539
526
519
527
517
500
483
520
510
534
528
562
576
553
506
519
492
563
548
541
523
530
519
526
550
536
500
490
527
532
502
481
516
522
502
521
579
727
866
961
881
727
564
445
393
401
408
478
467
462
486
484
458
451
473
543
499
517
509
504
505
494
496
531
513
501
471
495
523
553
565
538
484
562
515
531
502
579
582
556
568
573
539
562
574
559
610
558
600
611
602
572
585
653
618
610
615
644
584
553
533
539
509
455
406
382
400
388
359
359
349
369
379
364
340
360
395
411
410
435
422
414
414
425
398
429
441
437
462
441
438
470
472
455
463
498
488
491
493
467
466
445
466
490
511
483
466
499
512
499
498
504
497
532
520
477
480
518
512
491
539
549
498
519
530
542
532
533
548
481
472
529
540
547
510
532
512
522
549
570
567
514
502
549
561
561
524
488
489
535
509
555
548
538
552
541
535
532
515
513
516
543
543
529
506
513
505
541
510
506
507
523
522
530
543
529
542
513
513
537
556
546
521
528
508
541
540
513
536
533
547
562
540
531
549
572
549
541
525
535
548
527
542
520
514
481
477
503
493
493
464
492
550
680
844
946
883
738
588
393
325
355
389
411
442
437
422
461
463
431
421
456
475
422
451
475
483
498
508
449
485
506
497
493
506
478
480
491
500
554
553
504
478
510
534
555
578
564
557
574
562
588
593
604
632
644
630
627
613
635
608
588
591
616
634
570
518
491
484
440
426
428
434
389
377
381
382
339
344
340
393
421
390
363
378
399
416
406
422
416
429
455
433
451
438
447
430
455
433
474
481
519
487
486
471
448
475
510
508
499
474
485
497
508
473
490
488
472
502
507
512
507
521
497
487
484
470
480
494
508
492
519
519
501
504
528
518
550
509
546
504
473
468
500
516
500
516
497
524
524
519
506
512
519
527
487
464
495
522
523
498
499
532
491
523
535
511
522
496
488
533
531
564
499
480
500
503
478
485
502
535
535
567
528
510
514
520
539
520
540
513
484
515
509
516
540
555
556
581
566
556
546
572
513
466
471
456
515
501
509
490
488
510
619
798
935
946
881
679
515
388
384
398
423
446
456
474
431
425
432
469
460
463
438
467
481
466
461
460
455
524
533
522
517
532
550
555
520
484
494
510
529
534
519
549
551
557
588
583
596
577
609
610
619
642
650
616
608
650
641
637
639
621
631
611
616
566
527
514
505
497
444
403
405
382
380
395
355
372
402
385
414
378
404
394
406
419
414
438
445
401
425
450
470
474
477
456
458
472
452
458
466
474
480
518
461
478
498
527
505
512
506
513
491
496
495
496
493
489
475
467
466
509
509
527
492
511
508
561
514
518
504
487
488
526
484
476
498
527
528
518
531
542
546
531
529
516
496
515
503
530
493
496
499
525
515
538
529
527
490
517
531
539
522
540
490
478
469
512
532
516
522
512
523
515
519
544
498
502
509
503
508
497
516
536
525
549
540
513
516
545
563
551
563
530
521
531
523
506
506
509
524
506
470
444
486
465
522
668
831
946
903
801
665
468
383
382
420
481
473
437
412
400
384
407
447
438
455
468
457
453
472
475
469
482
514
479
470
451
477
488
498
531
540
505
501
503
516
551
587
568
542
565
550
551
577
599
584
605
623
603
601
661
653
609
623
658
611
606
584
585
528
526
508
503
445
430
404
388
376
357
387
377
360
389
366
363
361
400
418
423
445
425
414
402
402
422
433
462
466
454
432
475
437
458
471
490
525
526
474
455
448
474
492
496
460
463
490
487
504
488
526
511
498
528
510
511
472
470
483
454
461
495
481
494
503
528
519
540
547
525
492
466
476
483
492
508
515
531
493
491
501
535
518
509
510
503
493
500
474
512
516
536
506
507
498
493
513
541
516
510
523
504
486
506
537
574
563
531
536
540
544
571
541
555
513
574
544
513
498
524
516
500
516
517
499
508
490
539
487
518
586
771
955
980
855
668
465
375
364
411
447
455
432
439
458
465
499
449
423
414
464
513
470
441
476
483
492
495
523
510
498
520
531
518
457
481
499
567
534
546
542
538
560
567
578
593
581
567
591
618
635
608
621
615
632
651
638
614
622
625
601
571
580
557
516
494
462
451
417
413
421
408
353
359
377
382
367
342
378
389
396
459
435
409
385
411
453
431
446
425
442
455
452
451
468
472
476
461
502
496
493
501
493
465
467
484
474
486
498
487
490
491
491
488
510
529
497
516
476
450
458
514
495
503
487
517
514
523
519
510
486
500
468
517
493
495
514
500
520
520
524
533
505
508
504
544
531
489
472
495
536
544
494
479
470
503
525
539
517
519
515
503
480
503
520
510
555
517
476
511
513
523
486
513
551
542
514
517
534
496
488
532
557
538
538
510
526
541
562
539
543
565
553
524
520
485
470
466
481
485
455
475
518
649
824
954
978
867
654
485
376
351
385
412
428
420
412
417
451
443
440
458
479
491
464
476
495
502
485
498
488
464
504
515
464
510
554
522
515
527
551
525
576
540
544
563
528
551
579
572
572
582
600
613
598
610
639
652
635
620
609
631
608
613
581
545
532
504
486
463
452
433
433
386
389
394
371
370
358
346
357
388
381
381
404
429
420
400
429
415
424
428
434
437
422
454
450
523
487
442
448
453
491
481
460
465
480
505
501
477
478
480
496
496
486
473
477
515
485
510
479
459
466
505
517
533
517
479
493
518
502
490
480
508
533
513
476
471
496
491
490
490
540
543
521
498
507
527
515
511
520
494
484
453
498
541
537
483
505
498
531
517
514
538
528
511
489
509
508
502
492
480
551
535
505
506
508
535
537
509
534
499
513
519
530
527
529
497
490
508
513
536
531
531
564
536
546
528
521
565
540
516
526
518
517
524
526
511
474
476
461
546
538
572
685
836
970
957
743
532
403
332
332
383
442
454
461
459
497
499
444
449
470
493
531
523
500
500
511
489
509
502
495
516
496
512
500
525
513
548
559
542
571
559
612
562
536
561
554
558
577
577
615
610
616
588
617
609
621
638
614
616
625
601
608
615
585
561
556
524
476
438
439
390
395
398
391
401
410
409
407
388
403
451
396
407
375
407
409
397
439
430
458
455
443
474
476
471
487
500
467
478
487
477
469
468
450
512
528
527
533
514
496
490
506
507
494
499
517
485
468
494
520
514
537
515
508
515
501
512
509
516
517
503
532
512
521
546
517
534
503
507
526
503
505
539
529
501
502
537
543
538
506
497
525
514
503
484
535
544
543
563
564
524
501
500
519
541
549
514
490
491
501
533
541
525
528
523
539
553
537
558
519
517
500
488
534
545
543
516
517
552
525
538
555
559
535
516
542
569
548
526
558
518
525
562
579
562
546
551
563
568
530
513
534
535
449
486
483
485
475
578
743
916
985
878
733
577
420
368
394
458
459
438
423
468
479
473
451
429
482
444
465
481
482
490
497
516
519
531
508
503
505
513
500
539
564
557
537
519
531
535
564
573
552
567
543
582
596
636
659
634
612
615
646
623
597
615
647
633
637
633
621
625
607
557
520
535
512
490
435
438
406
394
401
374
363
387
417
396
384
397
395
398
428
433
429
438
415
410
443
490
476
463
439
474
505
500
482
463
484
494
492
474
500
505
508
522
501
478
479
496
502
526
542
496
510
495
498
494
477
506
506
498
507
487
498
481
491
503
492
492
531
509
504
536
496
519
495
521
474
469
482
487
499
535
533
516
518
498
516
528
505
508
489
512
522
511
492
467
454
495
522
536
540
507
520
532
515
496
473
508
506
497
478
484
499
505
485
515
527
517
500
508
485
484
490
526
543
531
521
522
502
484
472
469
482
516
507
516
520
498
490
513
551
537
542
530
475
460
529
536
558
535
567
522
524
530
543
582
531
460
454
495
463
459
478
500
458
433
487
640
845
959
936
844
644
456
337
360
410
414
417
406
424
459
426
430
430
417
478
442
405
429
482
479
470
484
465
471
481
479
510
517
508
497
511
494
476
502
529
547
551
540
519
534
554
590
590
601
621
580
552
606
597
623
611
607
593
607
629
621
596
582
577
556
528
511
471
417
381
427
424
390
335
368
406
369
333
365
382
378
417
407
384
427
430
399
406
428
425
437
427
446
463
461
456
462
448
445
485
489
480
491
484
479
460
444
447
470
475
482
476
486
470
474
506
505
494
503
473
513
523
512
469
490
486
473
442
459
535
499
482
489
516
519
501
481
482
496
472
492
516
502
477
477
499
520
527
497
481
507
498
477
476
523
506
485
484
492
503
532
485
450
511
529
548
527
489
497
500
497
497
502
511
483
523
531
531
500
509
514
517
542
523
552
534
539
503
514
513
490
526
545
530
510
537
491
553
534
520
533
527
520
514
518
506
531
508
547
549
507
524
534
542
549
532
529
538
537
527
533
502
491
508
524
479
501
478
495
476
504
582
715
838
918
834
694
549
409
379
392
405
423
421
432
430
429
446
481
467
458
452
478
494
506
498
532
531
462
495
481
494
505
494
512
527
499
497
515
542
564
546
523
561
553
578
534
555
571
569
589
591
594
614
673
635
630
609
627
622
609
631
598
595
584
571
538
558
511
486
471
414
429
427
404
404
402
382
371
368
371
393
414
424
457
426
435
471
480
493
463
443
460
447
495
493
464
467
491
494
514
538
489
498
480
483
527
499
503
520
532
508
496
502
518
523
540
533
504
496
488
505
522
509
547
543
511
489
503
513
510
529
498
497
541
516
525
541
564
536
539
542
540
530
550
575
554
530
563
515
508
495
523
598
623
584
536
510
546
582
571
559
534
530
538
528
532
527
544
571
543
554
553
568
557
546
544
565
564
539
524
532
526
549
554
531
562
548
550
562
595
543
516
523
577
585
573
563
562
577
547
569
586
560
578
582
558
580
594
548
523
530
536
531
544
564
533
510
478
495
517
522
456
483
535
626
809
942
949
797
644
470
374
336
365
422
427
430
473
407
444
464
447
472
467
455
479
465
447
450
468
523
515
475
481
489
510
526
538
512
519
489
480
502
508
553
548
564
591
546
558
563
577
554
569
586
593
602
621
611
610
612
662
654
602
580
569
553
560
520
486
484
448
402
393
393
397
374
369
354
364
318
331
325
317
352
417
387
352
383
368
399
418
433
444
445
432
429
429
430
424
427
445
469
460
456
468
457
452
490
495
489
465
463
481
513
480
482
499
471
486
510
477
476
454
459
486
498
502
494
490
490
502
499
502
519
506
499
513
523
493
483
483
485
500
509
521
493
500
539
554
523
495
511
477
484
520
520
480
483
488
497
512
524
502
551
532
528
533
471
493
519
509
491
515
508
516
549
495
499
502
532
566
536
514
501
512
516
511
530
533
501
493
490
480
510
535
527
531
540
484
501
500
535
562
554
509
505
544
519
511
487
506
516
529
541
527
531
512
528
544
557
563
572
535
534
501
496
534
502
519
543
470
497
486
495
540
667
848
968
966
808
619
453
388
404
407
439
450
447
450
406
406
468
476
478
455
481
454
440
442
441
495
504
488
499
499
482
492
514
485
488
515
532
517
517
515
525
540
587
537
555
555
564
569
572
594
596
632
613
592
620
636
630
618
613
590
605
587
609
577
526
510
473
467
464
459
410
367
361
369
379
349
375
376
389
374
387
444
412
384
409
428
414
417
410
443
457
447
422
417
451
462
469
475
502
482
479
484
467
471
482
504
473
510
493
480
478
463
501
491
489
495
484
487
505
527
485
488
530
519
497
482
473
450
493
480
514
500
496
503
496
453
481
521
529
477
505
548
506
486
468
493
476
497
521
520
491
489
488
504
535
547
502
461
466
487
493
507
501
473
511
518
476
503
516
501
510
515
493
492
492
479
502
490
480
519
520
493
470
493
496
512
506
487
477
483
517
480
477
519
538
475
465
489
504
483
475
508
505
479
520
512
500
464
483
496
492
487
520
521
516
539
538
529
545
524
507
507
481
458
473
487
483
461
497
483
450
499
574
728
853
943
886
720
491
377
281
292
343
370
407
475
458
454
474
483
462
450
481
491
493
482
467
446
455
487
470
468
513
509
530
534
559
539
546
538
552
542
544
533
548
520
555
576
590
578
588
648
647
611
648
643
656
652
655
635
630
608
614
652
617
574
577
542
512
516
455
435
402
404
448
354
387
420
400
394
406
398
402
415
403
409
461
467
431
429
431
468
472
482
499
480
462
452
503
539
495
492
505
543
535
486
527
539
493
514
506
490
515
517
520
541
543
526
512
531
510
508
518
531
546
525
520
502
509
540
535
551
529
574
546
555
539
537
543
548
582
564
532
520
558
548
560
534
559
566
564
530
512
545
545
548
553
547
564
538
557
562
563
560
532
518
505
542
591
572
573
560
525
547
572
544
560
575
585
557
509
501
526
545
559
567
568
565
560
576
546
527
521
553
559
563
550
526
532
534
545
556
543
556
536
532
554
538
559
563
540
569
562
549
532
515
539
544
550
585
540
529
521
548
549
515
496
517
527
487
476
479
495
544
643
779
894
899
805
638
456
368
351
370
422
446
459
472
448
429
418
421
471
496
471
483
479
497
510
514
509
471
457
511
502
509
554
535
506
503
552
549
543
556
566
544
539
572
572
573
570
600
642
607
598
626
602
595
630
639
646
671
679
615
617
631
623
579
529
533
500
465
441
404
424
421
404
412
414
348
339
382
404
409
395
411
419
400
409
410
377
411
436
436
447
463
468
429
434
444
460
454
458
448
478
476
497
482
477
486
478
469
490
515
468
450
455
442
484
505
503
519
503
473
483
507
497
526
465
443
496
478
474
497
510
482
491
505
486
498
522
509
510
473
468
497
443
489
504
472
506
522
500
489
485
518
542
501
481
475
466
476
491
521
549
465
471
502
504
504
484
498
501
528
503
493
482
484
489
515
490
495
516
508
515
512
517
506
496
489
508
494
489
468
476
488
522
485
501
509
505
486
541
542
485
455
522
498
486
489
486
507
527
509
505
519
557
536
540
538
492
510
530
585
571
534
506
505
489
499
492
513
477
478
474
463
466
550
669
864
991
909
782
583
418
351
377
419
420
385
382
410
424
437
419
439
464
469
503
463
474
471
502
496
451
449
483
496
493
461
501
500
505
536
527
540
537
521
541
539
545
566
549
515
556
582
587
584
608
590
629
652
654
656
625
596
636
617
586
566
522
541
513
487
477
493
442
409
407
381
362
358
367
395
385
385
361
336
371
404
392
384
375
400
412
423
440
445
444
479
460
438
443
457
450
441
440
457
465
450
478
456
480
477
470
453
485
492
487
488
496
538
533
467
447
476
471
489
492
513
502
509
487
515
546
510
504
550
518
481
469
487
494
505
524
509
502
513
519
514
526
512
531
506
533
530
474
470
501
522
527
518
508
500
505
488
493
496
523
545
523
500
476
506
484
477
489
515
539
505
490
523
522
528
515
512
496
492
523
516
495
494
512
516
522
532
497
494
532
513
509
509
527
524
497
501
490
472
515
546
530
510
503
521
515
560
515
532
501
509
542
541
496
512
518
545
557
557
542
558
547
536
546
536
531
531
500
518
522
500
468
489
503
500
529
620
741
913
959
815
638
442
376
364
415
442
442
463
466
410
451
456
457
468
469
457
451
451
487
501
514
528
506
489
519
522
532
526
498
531
545
545
540
518
554
553
553
555
569
577
557
607
587
582
641
616
607
618
632
633
643
613
648
632
625
603
608
614
582
552
532
502
489
490
437
387
391
412
394
376
338
346
364
404
395
439
415
358
408
454
463
449
428
445
442
424
397
421
435
440
455
465
505
488
484
488
495
469
482
482
506
476
405
467
474
463
469
500
520
518
515
491
517
515
499
528
516
489
520
536
477
464
506
486
469
527
553
554
519
529
516
514
513
519
540
507
469
483
501
504
503
567
574
500
467
532
538
526
548
537
538
531
521
476
482
541
527
522
517
502
534
561
529
549
532
543
512
519
558
535
519
543
500
519
498
518
528
537
533
517
554
553
512
510
553
550
516
504
525
510
518
559
531
553
565
542
534
499
545
553
557
571
567
570
542
539
556
551
538
529
561
573
545
569
565
540
543
529
533
529
504
488
513
491
475
493
539
685
836
941
920
776
590
465
395
429
420
420
422
433
452
448
459
507
485
454
477
484
503
481
494
506
493
522
522
501
522
521
544
536
532
546
551
549
497
507
546
569
589
569
532
575
599
602
610
614
593
625
641
648
635
628
670
662
607
648
661
631
600
596
599
543
506
457
468
468
436
413
425
416
386
362
371
373
379
374
368
373
374
416
437
417
395
417
417
451
428
452
452
455
450
432
437
458
471
484
489
450
469
487
488
495
480
464
483
480
478
491
482
480
473
498
487
468
488
469
484
504
498
504
513
495
493
504
542
520
517
502
505
491
453
481
506
502
467
487
516
510
499
516
512
513
493
467
484
476
497
501
520
507
482
477
484
507
496
486
477
464
495
533
481
498
489
485
494
507
513
514
496
492
500
517
522
484
474
484
503
489
483
473
488
517
537
516
515
545
491
498
496
498
523
528
500
511
495
512
520
488
512
530
535
523
500
496
507
519
532
523
535
519
515
557
562
545
542
551
552
625
521
524
538
535
516
528
530
514
497
510
527
498
498
480
531
672
865
963
950
822
597
439
364
372
430
467
460
443
441
448
446
439
453
483
490
465
439
460
457
475
487
480
480
506
510
524
532
514
467
490
535
519
545
533
556
520
504
562
554
556
548
571
589
596
604
629
605
619
621
659
655
640
657
623
614
638
619
586
544
522
528
491
482
436
422
418
408
363
369
357
372
394
376
363
388
377
369
398
390
372
427
434
420
423
423
442
453
477
457
440
483
461
470
457
466
456
474
477
494
454
481
477
498
487
476
507
517
490
471
468
472
473
450
483
518
526
505
485
502
490
488
475
505
492
480
484
499
515
517
491
468
499
489
525
535
473
487
488
497
516
507
501
501
515
536
532
475
478
531
502
536
520
469
497
521
532
540
526
512
496
503
520
511
526
514
516
488
518
507
512
474
480
506
540
559
510
485
475
491
508
538
557
523
496
459
475
506
546
518
518
521
510
506
493
480
485
484
483
471
504
491
497
504
488
497
504
513
508
524
496
505
484
512
504
526
534
552
545
532
531
501
515
516
528
508
482
496
497
478
462
441
475
498
568
633
775
920
939
808
667
494
407
329
372
388
417
443
442
459
445
455
475
473
474
458
440
443
498
467
498
519
493
487
500
534
520
508
499
527
557
570
512
529
523
526
559
544
526
533
526
558
549
577
602
657
622
597
604
637
641
620
626
616
607
586
580
565
567
531
510
498
468
438
410
418
419
390
362
338
326
348
381
391
360
349
386
387
391
422
435
415
445
475
427
410
442
434
447
487
500
455
470
481
469
463
478
507
507
484
468
473
478
510
498
503
482
499
484
514
494
509
483
474
469
492
509
502
479
473
472
518
533
498
439
469
495
506
515
507
472
478
488
482
469
497
507
488
470
476
499
496
478
493
499
478
523
492
518
510
479
502
482
489
521
522
482
519
518
506
479
522
513
506
541
498
486
531
561
528
512
495
504
527
543
552
531
507
519
500
526
528
528
489
545
549
537
479
506
518
544
567
537
521
535
532
530
525
566
537
561
551
531
545
563
560
538
564
558
564
560
543
546
536
530
507
516
502
503
498
544
556
649
830
931
907
768
610
481
416
399
417
468
491
460
467
482
493
464
450
517
497
487
516
517
501
500
542
533
506
485
543
525
549
556
567
546
526
545
569
596
600
573
596
618
586
584
607
579
598
626
638
663
668
676
674
673
660
668
659
687
658
655
629
588
577
571
563
555
491
415
428
428
427
404
418
406
397
382
372
365
402
400
382
414
442
427
399
452
454
470
474
464
441
432
461
469
473
480
482
497
475
463
477
467
487
494
505
451
492
510
491
480
493
519
529
507
446
491
532
528
541
521
501
501
501
499
503
507
496
520
517
517
516
492
516
527
537
555
535
533
478
497
529
509
506
512
518
524
534
515
530
540
529
520
501
520
508
485
506
522
531
533
515
483
501
558
553
554
525
520
517
506
487
509
541
536
515
506
477
501
509
538
553
526
497
483
499
515
513
514
505
497
484
490
514
504
547
487
470
487
521
528
522
525
539
520
473
476
541
515
524
563
575
547
544
540
482
466
472
501
531
540
497
496
464
419
456
489
532
598
787
896
899
820
675
520
396
380
357
393
411
423
443
419
450
438
468
458
447
465
452
453
480
480
468
486
503
509
498
476
506
520
533
539
515
516
509
498
554
551
562
542
559
567
569
589
608
576
594
602
615
609
659
644
628
649
645
651
632
598
618
622
550
538
552
510
474
445
434
399
409
410
382
375
381
363
366
365
378
386
382
381
412
376
375
415
432
439
439
438
451
444
459
466
494
461
447
438
456
471
484
461
483
483
465
474
505
492
490
499
491
505
485
480
475
493
486
498
469
500
486
489
505
479
518
494
493
482
479
518
544
507
483
478
503
480
478
493
501
516
507
526
529
477
443
485
519
512
517
496
510
496
497
520
491
483
492
483
503
474
500
502
488
506
526
543
519
502
492
495
526
519
482
506
536
553
519
506
529
513
510
519
538
510
496
504
499
525
519
548
493
513
519
518
527
537
521
528
522
535
522
521
532
533
528
509
521
507
521
525
537
562
542
540
550
559
563
568
517
545
546
544
551
550
526
503
503
481
512
495
470
494
499
601
780
962
993
874
703
514
384
406
407
438
441
453
459
407
405
423
459
474
473
460
504
449
458
440
478
503
495
491
499
508
500
512
525
523
499
514
540
527
501
540
546
526
555
580
589
580
583
545
580
626
645
654
595
594
633
639
605
638
650
617
611
594
553
539
490
477
468
434
394
390
364
346
346
362
322
339
364
365
410
393
371
358
363
371
386
389
398
399
457
423
436
435
437
425
425
477
487
455
431
468
466
480
483
467
450
450
476
502
516
534
494
499
483
487
447
500
497
518
492
490
463
479
504
523
499
492
488
479
489
504
518
494
530
496
501
515
491
487
513
520
484
484
482
504
531
520
539
497
515
515
512
501
498
507
481
470
491
502
487
501
532
530
500
528
524
537
506
528
520
501
478
485
501
503
470
507
511
537
538
510
496
493
499
509
505
515
524
517
499
481
474
486
535
539
508
501
507
519
498
491
512
500
495
545
513
496
522
548
553
540
497
549
554
533
509
527
518
516
522
513
521
508
470
507
525
490
474
455
486
498
570
729
842
919
832
702
525
468
373
356
406
416
423
421
451
482
483
459
483
472
486
480
495
498
497
524
532
491
509
513
518
503
496
532
555
527
501
541
587
554
570
569
554
549
549
585
626
609
611
611
601
588
602
622
653
677
632
651
629
641
665
622
622
604
548
500
507
512
497
438
431
422
398
397
397
388
388
363
350
373
407
410
416
410
407
418
406
412
443
471
424
426
459
487
510
480
469
463
425
461
480
489
483
488
509
484
477
514
489
493
499
489
483
546
521
490
474
498
485
473
482
505
530
529
505
501
516
526
512
521
521
507
507
539
518
515
502
505
504
515
534
533
488
481
496
544
515
518
487
493
499
534
539
517
480
484
523
535
529
532
493
513
571
536
534
493
477
500
544
526
495
492
535
547
516
523
525
509
507
514
493
518
536
516
539
545
529
529
529
548
524
531
523
510
502
492
487
518
500
511
550
572
534
552
528
542
560
548
527
505
539
530
557
526
496
528
553
574
526
514
511
519
503
528
507
463
475
472
488
564
695
882
982
889
752
575
426
340
362
423
458
478
453
449
459
423
426
482
496
476
446
470
478
470
481
502
510
528
510
512
508
517
493
489
534
530
550
543
577
548
544
522
550
580
598
595
593
605
570
570
632
647
635
627
648
659
644
651
662
637
599
580
595
576
523
510
529
457
464
454
371
383
389
380
386
420
408
396
350
413
434
410
421
425
429
521
497
485
474
508
560
485
323
386
474
644
583
567
575
554
630
539
419
371
421
487
468
390
309
397
493
704
1023
1023
1023
1023
1023
1023
703
194
58
19
7
3
2
1
1
1
1
1
1
1
1
1
1
1
1
1
1
1
1
1
1
1
1
1
1
1
1
1
1
1
1
1
1
1
1
1
1
1
1
1
0
1
1
0
1
1
0
1
1
1
0
1
1
1
1
1
1
1
1
0
1
0
1
1
0
0
0
0
1
1
1
1
0
0
1
1
1
1
1
1
0
1
1
1
0
1
1
1
1
1
1
1
0
1
1
0
45
707
1023
1023
1023
1023
1023
1023
1023
1023
1023
1023
1023
1023
1023
1023
1023
1023
1023
1023
1023
1023
1023
1023
1023
1023
1023
1023
1023
1023
1023
1023
1023
1023
1023
1023
1023
1023
1023
1023
1023
1023
1023
1023
1023
1023
1023
1023
1023
1023
1023
1023
1023
1023
1023
1023
1023
1023
1023
1023
1023
1023
1023
1023
1023
1023
1023
1023
1023
1023
1023
1023
1023
1023
1023
1023
1023
1023
1023
1023
1023
1023
1023
1023
1023
1023
1023
1023
1023
1023
1023
1023
1023
1023
1023
1023
1023
1023
1023
1023
1023
1023
1023
1023
1023
1023
1023
1023
1023
1023
1023
1023
1023
1023
1023
927
458
137
42
14
6
3
2
1
1
1
1
1
1
1
1
1
1
1
1
1
1
1
1
1
1
1
1
1
1
1
1
1
1
0
1
1
1
1
0
1
0
1
0
1
1
1
1
1
1
1
1
0
1
1
1
0
0
1
1
1
1
0
1
0
1
1
1
1
1
1
1
0
1
1
1
1
13
318
708
1023
1023
1023
1023
1023
1023
1023
1023
1023
1023
1023
1023
1023
1023
1023
1023
1023
1023
1023
1023
1023
1023
1023
1023
1023
1023
1023
1023
1023
1023
1023
1023
1023
1023
1023
1023
1023
1023
1023
1023
1023
1023
1023
1023
1023
1023
1023
1023
1023
1023
1023
1023
1023
1023
1023
1023
1023
1023
1023
1023
1023
1023
1023
1023
1023
1023
1023
1023
1023
1023
1023
1023
1023
1023
1023
1023
1023
1023
1023
1023
1023
1023
1023
1023
1023
1023
630
235
71
23
8
4
2
2
1
1
1
1
1
1
1
1
1
1
1
1
1
1
1
1
26
175
338
517
687
829
965
1023
1023
1023
1023
1023
1023
1023
1023
1023
1023
1023
1023
1023
1023
1023
1023
1023
1023
1023
1023
1023
1023
1023
1023
1023
1023
1023
1023
1023
1023
1023
1023
1023
1023
1023
1023
1023
1023
1023
1023
1004
969
921
881
849
805
743
678
624
568
499
433
378
319
248
178
119
55
17
6
3
2
1
1
1
1
1
1
1
1
1
1
1
1
1
1
1
1
1
15
52
78
91
98
115
133
135
131
135
142
139
135
151
171
182
184
191
190
173
145
123
96
56
17
5
2
1
1
1
1
1
1
1
1
23
433
1018
1023
1023
1023
1023
1023
1023
1023
1023
1023
1023
1023
1023
1023
1023
1023
1023
1023
1023
1023
1023
1023
1023
1023
1023
1023
1023
810
530
287
98
31
10
4
2
2
1
1
1
1
1
1
1
1
1
1
1
1
1
1
1
1
1
1
1
1
1
1
1
1
1
1
1
1
1
1
1
1
1
1
1
1
0
1
1
1
1
1
1
1
100
234
357
468
577
683
763
805
812
807
782
728
660
590
507
413
313
227
147
74
26
9
3
2
1
1
1
1
1
1
1
1
1
1
1
1
1
1
1
1
1
1
1
0
1
1
1
1
0
1
1
1
0
1
0
1
1
1
1
0
1
1
0
1
0
1
1
1
1
0
0
1
0
1
1
1
68
171
265
339
399
444
451
405
323
215
83
24
7
3
1
1
1
1
1
1
1
1
1
0
1
1
1
1
1
1
69
235
418
641
896
1023
1023
1023
1023
1023
1023
1023
1023
1023
1023
1023
1023
1023
1023
1023
1023
1023
1023
1023
1023
1023
1023
1023
1023
1023
1023
1023
1023
1023
1023
1023
1023
1023
1023
1023
1023
1023
1023
1023
1023
1023
1023
1023
1023
1023
1023
1023
1023
1023
1023
1023
1023
1023
1023
1023
1023
1023
1023
1023
1023
1023
1023
1023
916
698
480
301
141
43
14
5
3
2
1
1
1
1
1
1
1
1
1
1
1
1
1
1
1
1
1
1
1
1
1
1
1
1
1
0
1
1
1
1
1
1
1
1
1
1
1
1
1
0
1
0
1
1
1
1
1
1
1
1
1
0
1
0
0
1
1
1
1
1
1
1
0
1
0
1
1
1
1
0
1
1
1
0
1
1
0
1
1
1
0
0
1
1
1
1
1
0
0
1
1
1
1
1
1
1
0
1
1
1
1
0
1
0
0
1
1
0
0
1
1
0
1
1
0
1
1
0
1
1
1
0
1
1
0
0
1
0
1
1
0
1
1
1
1
1
1
1
1
0
1
1
1
0
1
1
1
0
1
1
1
1
0
1
0
1
0
1
0
1
1
0
1
1
1
0
0
1
1
0
1
0
1
0
1
0
1
0
0
1
1
0
1
0
1
1
0
0
1
0
0
1
1
1
0
0
0
0
0
1
0
0
0
1
0
1
1
0
1
1
1
1
1
4
36
51
54
80
115
122
118
140
170
176
171
193
223
232
234
260
295
308
310
333
364
371
362
375
402
405
400
420
451
460
458
481
515
523
518
539
572
580
575
591
620
626
619
633
658
659
647
662
691
694
679
691
716
713
694
698
719
715
695
704
728
730
713
722
745
745
729
741
767
767
749
760
785
790
777
787
817
825
813
831
872
891
887
905
934
937
918
920
942
944
927
932
956
957
939
943
969
970
949
953
975
969
942
938
956
945
913
905
917
906
869
860
872
860
827
817
826
814
775
756
764
750
716
708
721
710
682
678
697
695
673
675
699
697
675
678
701
702
676
675
697
695
673
674
700
701
680
680
703
707
691
700
733
739
726
739
773
787
779
793
828
838
829
838
867
869
848
849
876
876
856
858
879
876
848
845
866
864
837
833
852
848
820
815
833
828
802
799
821
821
795
791
810
805
775
768
784
782
752
742
760
756
729
720
729
713
670
654
669
665
643
642
664
665
644
642
663
664
645
645
668
670
647
649
674
680
661
661
683
687
664
664
688
691
669
665
687
688
662
662
685
685
659
656
676
674
649
642
660
661
635
625
645
643
617
611
631
634
610
605
623
620
592
580
594
589
558
544
554
543
511
497
507
495
465
451
458
448
418
405
417
414
391
385
405
406
381
371
387
384
356
342
350
338
303
283
286
277
252
250
275
287
279
293
329
351
351
368
407
428
422
429
461
475
468
478
510
525
519
531
576
610
620
645
688
709
702
709
735
739
717
715
739
745
728
724
742
744
721
713
732
731
703
690
699
693
661
645
652
647
619
609
628
632
612
612
640
651
639
649
680
682
641
607
599
581
538
510
519
522
499
488
504
506
481
