760
792
822
811
776
764
765
793
803
797
801
807
809
806
786
755
761
779
789
809
811
781
778
802
839
863
853
821
795
758
715
718
727
715
756
785
792
778
741
708
701
743
784
805
773
706
652
621
642
656
693
731
743
727
715
713
735
736
709
690
696
694
701
687
687
714
764
775
760
720
700
692
695
735
767
761
749
760
752
720
715
753
758
735
708
703
684
658
665
715
733
719
734
761
771
734
673
671
699
708
687
684
677
637
637
670
694
718
706
701
690
677
674
692
714
725
720
693
649
641
646
640
665
675
656
647
644
633
618
648
697
752
789
763
698
659
660
665
672
653
658
686
682
649
633
681
721
717
722
742
735
682
649
645
659
674
682
671
658
657
675
687
697
684
681
684
663
621
638
688
724
748
732
699
664
657
670
682
700
717
713
728
735
700
666
663
671
678
689
681
690
679
705
735
731
730
721
704
689
692
709
728
758
758
728
714
713
686
661
701
733
747
732
714
737
720
712
723
737
745
756
778
774
758
747
752
750
765
779
789
801
771
747
746
744
736
720
717
722
729
757
785
799
793
766
758
755
743
729
710
718
713
730
772
785
778
768
762
749
729
718
718
712
728
751
768
805
807
782
756
746
743
718
719
761
765
736
708
719
743
736
736
738
729
734
711
718
729
717
707
709
733
752
739
697
663
644
653
677
685
727
746
743
707
666
644
643
653
708
765
798
848
909
950
1020
1023
997
924
835
742
682
659
647
605
571
573
607
621
604
613
619
625
620
631
646
622
600
622
625
622
632
676
692
657
635
626
640
641
611
599
580
590
629
623
598
623
643
646
672
635
625
644
648
630
627
624
637
647
654
628
628
665
680
656
622
591
591
627
643
638
628
617
638
654
631
599
608
627
635
625
611
616
614
629
658
682
667
641
642
590
552
598
658
680
678
681
671
651
667
693
670
638
629
623
609
587
565
580
617
658
671
686
664
617
606
601
623
612
593
585
569
530
531
538
564
590
591
591
558
507
472
474
497
519
502
474
472
472
486
507
517
504
496
494
498
492
463
452
450
459
467
478
488
498
508
502
502
507
510
481
454
463
463
459
466
491
506
480
464
473
500
535
557
548
499
474
476
462
462
490
496
500
491
475
475
473
478
493
534
554
509
436
415
414
413
428
462
482
500
508
504
478
454
499
518
514
489
456
426
433
452
469
480
477
476
507
503
494
514
508
501
524
530
523
495
453
434
456
493
521
521
526
539
536
546
542
537
521
500
472
417
425
459
484
521
542
539
529
532
557
548
540
536
536
508
487
495
498
477
466
503
534
596
648
641
584
521
482
479
487
497
506
521
521
526
541
558
588
612
599
566
538
507
485
512
552
581
586
591
589
554
530
553
578
626
652
644
592
555
553
561
558
542
544
563
568
583
593
592
597
595
610
610
573
532
526
526
537
559
576
582
565
548
564
564
546
573
615
633
621
569
532
526
550
579
573
547
535
550
575
597
602
590
582
600
648
653
609
552
541
562
532
516
520
538
563
585
627
636
608
584
540
527
547
578
601
609
602
580
566
544
565
631
659
626
606
591
561
554
579
591
599
613
591
552
533
517
519
549
560
552
524
508
513
507
504
537
578
629
677
702
719
750
772
815
867
877
828
743
632
552
521
501
495
464
433
411
403
430
460
489
515
525
519
502
523
521
512
509
505
482
486
509
524
505
515
545
548
547
544
545
548
549
519
500
517
521
514
527
545
518
506
553
593
579
559
523
490
468
486
513
520
514
503
532
554
589
565
519
543
588
601
576
540
511
534
553
534
520
540
581
591
587
567
563
569
565
570
590
613
596
583
575
564
555
542
545
559
559
565
586
598
563
552
585
601
593
593
587
573
564
559
549
532
503
492
493
520
552
581
568
507
458
455
496
509
486
466
454
450
440
445
454
444
446
476
492
463
426
413
404
399
423
459
463
448
435
437
456
478
467
445
449
425
392
385
413
418
419
421
438
444
434
424
441
478
476
444
448
461
465
461
476
491
486
481
462
450
427
419
448
457
444
426
426
451
451
470
516
539
501
455
423
401
412
437
459
470
462
469
490
508
502
463
430
413
424
423
413
417
420
441
440
456
451
445
435
417
412
415
420
439
473
483
478
462
451
461
459
485
501
485
457
424
410
405
429
456
471
467
471
481
469
459
445
466
493
509
489
450
422
416
457
506
514
490
481
487
479
445
453
455
468
471
469
477
469
487
488
495
514
520
519
529
507
482
459
469
478
508
522
524
501
478
486
504
516
499
489
500
492
471
485
495
500
518
544
555
540
497
466
464
459
454
479
515
539
534
527
523
537
529
496
489
504
516
526
539
512
504
488
483
495
484
494
518
542
548
542
524
527
520
516
509
528
544
536
506
496
493
508
540
556
531
499
496
516
547
560
572
556
547
544
556
535
523
527
542
555
558
548
527
501
481
465
456
490
520
527
527
514
475
461
497
534
528
522
507
499
504
532
556
539
564
621
691
744
779
819
847
805
723
637
574
513
441
414
409
423
398
383
384
413
457
491
496
481
475
483
464
444
448
450
437
438
449
484
482
440
415
427
475
521
523
511
488
467
444
436
455
456
439
467
492
491
470
465
483
499
509
496
470
460
465
475
491
501
502
506
503
483
468
455
483
486
467
472
499
536
550
539
516
503
510
505
502
499
516
536
555
578
572
558
540
528
518
529
537
541
553
560
580
589
572
557
563
542
525
527
539
527
511
497
510
516
532
564
587
575
532
499
494
496
495
482
480
485
485
482
510
533
507
470
422
403
406
420
435
426
408
400
407
417
414
406
414
422
414
399
403
395
368
375
415
451
454
418
387
379
359
306
283
325
386
422
423
410
396
409
428
429
399
402
413
419
442
452
445
432
413
398
407
431
396
388
422
427
418
436
452
436
394
388
394
382
390
386
398
403
407
413
419
452
418
384
386
421
410
397
407
423
439
410
411
412
391
378
381
398
420
463
486
473
422
392
419
447
449
439
434
441
461
457
457
474
473
427
419
455
481
495
489
474
448
437
460
437
414
409
430
450
476
498
491
485
494
491
501
497
495
483
479
477
444
422
478
538
572
548
509
481
457
448
472
489
506
508
515
522
521
527
554
565
544
524
485
442
446
484
490
497
512
500
503
511
475
484
515
533
561
586
556
499
466
463
478
534
558
566
577
603
583
521
494
484
479
478
498
533
518
480
484
506
505
489
495
522
530
527
524
554
568
549
524
516
507
510
533
572
591
605
623
614
557
500
499
537
570
588
573
541
513
496
510
537
571
569
554
538
561
599
612
613
606
562
547
546
544
550
573
606
607
584
564
545
534
555
573
585
568
546
554
531
470
442
456
515
539
524
520
541
575
614
674
738
777
809
831
835
800
739
692
651
601
564
528
473
427
430
427
419
420
453
484
495
500
519
539
542
537
523
499
492
490
501
518
535
540
496
475
488
501
505
519
532
547
561
548
503
481
497
517
536
549
543
543
552
513
453
422
450
492
497
534
534
492
484
501
530
556
609
611
546
489
506
552
562
554
524
499
505
523
537
549
569
559
532
532
533
552
572
592
605
619
597
578
568
543
527
552
592
609
574
547
568
594
595
599
601
572
542
536
538
521
508
540
588
614
608
560
523
520
529
529
552
574
567
538
509
486
477
502
512
525
503
476
451
436
414
409
430
453
454
429
431
452
481
513
527
491
473
468
460
466
474
467
458
459
454
459
460
461
458
448
462
488
493
493
476
444
445
461
485
519
518
498
494
491
481
479
483
502
522
540
563
539
482
478
485
474
460
456
462
473
490
519
531
544
538
506
474
451
461
485
488
485
497
514
529
514
489
480
478
503
515
523
507
495
501
523
538
538
534
509
531
527
493
492
509
522
538
583
611
601
567
534
503
481
472
491
490
480
497
537
556
555
558
537
516
487
455
461
493
512
537
560
542
521
506
503
544
583
585
558
481
427
419
467
523
539
549
565
562
537
524
519
509
521
532
521
477
421
482
529
561
585
550
533
521
503
489
501
520
532
530
528
524
511
498
512
521
532
522
523
527
507
478
479
483
489
512
548
572
566
501
462
483
501
521
541
570
579
544
502
479
480
496
525
546
553
543
537
553
564
566
579
562
540
515
525
543
516
506
517
539
563
580
575
566
550
528
523
525
508
510
543
562
568
573
591
570
546
520
497
495
514
521
507
494
491
497
510
521
538
523
498
503
506
484
469
488
510
527
526
516
525
573
650
713
788
853
847
824
784
727
675
635
578
510
449
409
370
347
348
359
385
413
437
434
431
441
457
478
488
497
491
480
434
425
465
497
506
504
493
492
477
451
443
452
481
509
510
480
458
451
462
481
509
503
467
468
457
493
545
546
511
504
497
484
478
469
486
520
545
514
478
495
511
496
474
486
515
536
549
543
531
506
488
519
562
539
511
530
532
509
501
503
543
581
588
575
545
523
519
528
564
596
588
571
578
576
602
623
609
577
553
540
523
525
537
558
568
573
566
559
556
559
572
548
527
495
481
483
472
457
444
469
475
476
463
467
471
489
458
442
438
412
408
412
423
441
478
502
443
411
417
420
401
390
411
451
488
526
501
445
397
360
363
377
404
457
473
470
460
440
429
429
422
424
432
455
468
447
421
422
434
439
456
492
505
496
490
491
467
461
485
507
493
432
406
408
424
452
465
479
461
423
411
435
443
441
424
417
440
445
427
421
448
458
451
463
492
497
480
488
497
494
488
499
485
464
426
464
486
479
476
477
471
451
459
515
527
505
467
426
411
401
399
401
446
487
481
447
447
480
494
492
500
509
502
521
520
483
431
440
448
471
493
491
477
461
453
449
457
455
450
434
441
462
486
509
482
443
427
432
453
465
462
469
479
510
530
513
462
413
410
457
495
474
448
462
471
471
486
516
504
459
469
499
491
449
446
477
502
511
513
525
517
504
481
471
454
421
436
484
530
529
550
594
557
473
453
469
468
443
448
476
488
480
474
471
484
501
500
505
521
549
563
533
515
492
473
454
484
553
566
527
471
417
398
408
434
447
464
486
492
487
481
486
517
524
502
489
485
483
495
527
571
634
700
767
815
818
745
671
607
547
494
439
379
329
314
318
349
400
441
454
457
439
430
455
464
446
421
426
441
446
475
493
486
477
464
453
456
452
435
444
454
467
470
473
475
475
474
457
449
453
496
509
496
490
469
470
479
463
477
509
515
504
475
491
535
557
532
494
465
426
409
450
490
519
531
538
523
503
516
541
547
554
576
575
567
559
544
519
505
491
474
503
553
574
535
536
554
546
577
591
579
556
541
547
569
585
588
561
534
532
523
511
520
530
533
543
534
503
495
527
561
567
521
484
447
410
405
425
448
458
461
476
480
458
439
427
436
436
423
407
382
382
402
425
470
482
455
417
406
417
431
430
437
464
459
440
448
447
457
454
467
481
472
469
467
452
448
457
464
444
439
439
438
464
475
492
514
532
528
526
543
516
480
437
436
469
469
461
456
464
459
445
469
498
519
505
481
461
442
443
466
462
460
475
464
429
402
391
424
473
533
512
478
451
432
412
395
416
442
447
448
451
450
450
480
547
565
517
470
431
408
423
454
454
424
430
437
445
432
422
441
488
516
509
498
488
449
437
475
487
458
452
421
419
445
464
476
505
538
552
543
521
475
458
473
487
474
473
498
494
491
479
506
527
541
514
477
468
482
510
531
527
517
486
462
467
469
465
499
521
520
496
477
454
464
505
517
523
529
514
508
512
509
481
451
467
494
527
536
503
474
506
563
572
533
501
493
501
509
532
537
515
532
533
490
443
449
502
529
549
569
571
552
513
478
493
518
518
527
546
563
551
537
540
540
559
568
534
512
517
520
523
512
493
505
554
570
611
606
542
504
498
502
489
464
478
481
493
502
514
520
527
531
527
513
543
560
608
676
766
836
862
824
784
752
712
642
587
561
544
487
439
426
446
461
463
471
480
499
501
495
485
481
504
515
501
483
485
504
516
522
512
499
475
490
507
532
528
545
547
536
502
471
462
479
507
533
546
509
491
493
514
556
586
583
559
555
554
539
517
507
543
557
568
570
542
521
530
548
553
542
532
557
554
543
536
546
592
595
569
534
510
489
499
520
556
589
585
581
578
586
601
599
586
579
562
550
556
553
555
562
572
572
547
536
530
543
551
532
535
544
569
612
594
535
497
492
500
508
505
503
490
464
441
461
502
520
531
522
495
474
448
434
450
438
425
420
412
407
411
402
401
426
422
448
442
436
423
443
474
481
461
442
451
465
471
475
468
470
475
468
466
443
430
435
433
454
449
438
450
457
462
460
470
471
465
448
434
422
426
454
446
410
396
443
494
482
463
470
464
453
460
465
446
417
409
421
457
476
447
421
425
405
395
402
406
433
459
446
446
449
446
453
452
444
423
439
448
442
445
441
444
444
433
461
465
485
487
482
493
481
447
467
513
517
521
532
530
513
463
443
478
519
506
477
473
495
505
511
539
548
546
516
505
508
503
508
505
503
524
539
542
543
516
508
533
562
552
523
521
542
554
545
545
547
549
545
525
543
545
533
542
543
541
532
518
554
574
581
577
578
552
521
500
515
538
539
526
528
541
560
567
555
555
566
593
604
574
566
572
584
560
551
568
583
586
584
616
650
614
590
581
564
557
566
551
545
572
565
563
571
546
543
591
634
656
655
650
620
592
575
563
546
558
577
601
607
582
564
568
581
580
578
539
505
496
533
565
555
576
612
634
608
541
501
525
574
613
669
756
790
814
839
841
813
746
680
612
562
502
469
465
468
454
454
450
452
451
465
508
530
554
592
588
514
447
446
458
478
503
524
513
509
496
503
527
540
538
527
519
500
522
531
524
534
561
574
563
558
547
515
509
540
571
585
531
492
494
508
550
603
601
547
517
512
512
518
545
579
576
544
522
537
558
568
567
569
576
561
556
556
562
548
548
583
593
610
620
627
630
607
581
594
609
608
609
608
588
568
568
589
592
567
546
560
594
609
635
640
624
620
614
564
525
513
518
493
487
532
588
584
565
549
521
513
510
480
477
493
491
480
476
489
491
471
464
461
462
458
471
483
477
495
519
480
453
451
466
513
542
522
505
473
460
465
474
495
504
521
533
529
504
491
481
501
531
545
548
534
499
473
480
524
531
512
482
494
510
508
520
521
528
537
534
544
551
547
548
543
557
560
565
560
535
546
561
571
553
507
483
502
505
496
510
531
553
560
526
499
484
477
489
519
527
512
521
516
518
542
584
593
591
570
530
496
499
513
491
474
480
503
540
549
543
542
541
540
536
527
518
538
534
538
553
557
547
532
497
471
464
491
512
524
537
533
536
549
550
542
548
534
513
505
505
491
482
489
492
515
548
554
537
547
566
564
554
540
530
513
524
512
486
473
495
539
564
549
535
517
521
527
523
521
544
575
577
562
531
501
497
536
577
600
571
536
529
524
524
543
557
558
533
502
488
511
517
523
526
523
517
566
586
587
586
571
547
540
592
609
574
546
550
572
563
561
556
535
527
560
567
581
582
543
502
498
500
519
525
538
560
560
540
522
503
521
540
549
538
527
519
516
496
498
573
661
713
760
795
813
813
805
759
699
654
566
506
491
442
396
391
433
471
490
462
437
429
459
481
490
502
502
492
473
484
511
514
496
460
448
467
489
517
523
528
531
532
504
497
486
483
488
499
521
550
554
557
537
499
492
514
534
518
489
485
498
510
506
509
521
509
492
507
531
502
480
476
513
545
524
503
530
557
567
572
608
618
584
560
562
566
541
540
555
570
582
570
540
509
532
574
597
620
630
633
608
583
565
544
563
614
626
607
593
578
546
545
585
603
576
563
569
547
533
552
562
538
497
482
480
461
447
451
473
494
523
525
508
473
448
414
411
447
462
480
483
467
446
403
403
421
451
501
513
472
457
453
457
465
473
472
461
452
449
444
448
468
485
497
505
486
462
458
475
496
513
494
490
468
449
454
477
520
551
550
547
512
477
471
486
498
494
473
469
486
517
547
560
547
503
492
492
497
491
526
569
573
514
480
474
459
437
439
456
472
486
494
497
481
489
486
498
516
530
527
523
530
513
487
464
481
505
519
522
547
566
577
556
532
482
463
485
503
506
510
497
506
512
501
507
504
489
484
508
531
527
513
505
503
499
508
538
550
560
562
512
473
439
433
447
457
459
477
497
517
508
514
554
571
566
560
535
519
514
490
482
496
492
507
511
508
505
490
506
536
542
528
515
527
526
507
484
510
529
518
516
510
486
507
544
563
548
531
509
485
491
506
533
556
548
527
519
538
537
528
548
548
549
546
533
525
479
474
513
559
562
534
510
502
524
550
548
553
549
551
556
536
515
486
477
500
541
577
586
579
573
548
530
534
541
532
534
535
521
519
524
542
565
556
515
514
501
521
570
561
529
521
527
510
495
494
524
557
564
556
570
593
629
687
747
791
816
852
824
728
641
587
550
524
497
469
428
418
408
413
436
464
486
492
505
505
472
454
483
521
537
521
485
454
445
423
413
410
427
494
535
518
506
516
523
523
520
512
525
534
541
525
517
511
529
543
539
508
457
470
500
528
535
513
497
491
496
509
521
521
512
516
522
532
545
544
552
542
530
523
536
513
525
548
577
564
544
529
514
515
492
485
497
526
579
626
644
622
593
546
532
553
570
555
547
550
567
589
592
563
542
531
519
515
515
506
