1
1
1
1
1
1
1
1
1
1
1
1
1
1
0
1
1
1
1
1
1
1
1
1
1
1
1
0
1
1
1
1
1
1
1
1
1
0
1
1
1
1
1
1
1
1
1
1
1
1
1
1
1
1
1
0
1
1
1
1
1
1
1
1
1
1
1
1
1
1
1
1
1
1
1
1
1
0
1
1
1
1
1
1
0
1
1
0
1
1
1
1
1
1
1
1
1
1
1
1
1
0
0
1
1
1
1
1
1
0
1
0
1
1
1
1
1
1
1
0
1
0
1
1
1
1
1
1
1
1
1
1
1
1
1
1
1
1
0
1
1
0
1
1
0
1
1
1
1
1
0
0
1
0
1
1
1
1
1
1
0
0
0
1
1
1
1
1
1
1
1
1
0
1
1
1
1
1
0
1
0
1
1
1
1
1
1
1
7
73
35
17
9
4
3
2
41
196
98
48
24
12
7
4
48
235
129
64
32
16
9
5
82
318
188
94
48
25
13
7
34
211
117
58
29
15
8
4
38
232
134
66
33
17
9
5
98
374
242
122
62
32
17
9
166
492
341
173
89
47
24
13
230
598
437
223
116
61
32
42
475
947
773
397
210
112
60
161
726
1023
1003
516
275
148
80
252
845
1023
1023
585
312
168
91
354
949
1023
1023
676
359
194
111
459
1023
1023
1023
752
399
215
128
494
1023
1023
1023
788
417
225
126
447
1016
1023
1023
781
414
223
121
322
905
1023
1023
758
401
216
117
371
957
1023
1023
816
431
232
126
409
990
1023
1023
854
450
242
134
435
1009
1023
1023
889
468
252
142
468
1023
1023
1023
937
492
265
156
513
1023
1023
1023
992
519
279
176
570
1023
1023
1023
1023
553
297
204
630
1023
1023
1023
1023
591
317
240
698
1023
1023
1023
1023
629
337
289
780
1023
1023
1023
1023
684
365
338
835
1023
1023
1023
1023
716
382
370
871
1023
1023
1023
1023
754
402
409
910
1023
1023
1023
1023
794
422
446
945
1023
1023
1023
1023
831
442
474
964
1023
1023
1023
1023
856
456
495
983
1023
1023
1023
1023
881
470
510
998
1023
1023
1023
1023
907
484
524
1005
1023
1023
1023
1023
932
498
535
1013
1023
1023
1023
1023
965
516
551
1023
1023
1023
1023
1023
1019
550
587
1023
1023
1023
1023
1023
1023
569
602
1023
1023
1023
1023
1023
1023
590
623
1023
1023
1023
1023
1023
1023
652
665
1023
1023
1023
1023
1023
1023
680
664
1023
1023
1023
1023
1023
1023
696
666
1023
1023
1023
1023
1023
1023
731
688
1023
1023
1023
1023
1023
1023
746
695
1023
1023
1023
1023
1023
1023
846
777
1023
1023
1023
1023
1023
1023
858
760
1023
1023
1023
1023
1023
1023
801
677
1023
1023
1023
1023
1023
1023
741
610
1023
1023
1023
1023
1023
1023
679
556
997
1023
1023
1023
1023
1023
851
814
1023
1023
1023
1023
1023
1023
1023
1023
1023
1023
1023
1023
1023
1023
1023
1023
1023
1023
1023
1023
1023
1023
1023
1023
1023
1023
1023
1023
1023
1023
1023
1023
1023
1023
1023
1023
1023
1023
1023
1023
1023
1023
1023
1023
1023
1023
961
1023
1023
1023
1023
1023
1023
1023
885
1023
1023
1023
1023
1023
1023
1023
796
980
1023
1023
1023
1023
1023
1023
715
932
1023
1023
1023
1023
1023
1023
688
928
1023
1023
1023
1023
1023
1023
700
950
1023
1023
1023
1023
1023
1023
718
972
1023
1023
1023
1023
1023
1023
731
986
1023
1023
1023
1023
1023
1023
741
995
1023
1023
1023
1023
1023
1023
737
987
1023
1023
1023
1023
1023
1023
722
968
1023
1023
1023
1023
1023
1023
703
944
1023
1023
1023
1023
1023
1023
684
921
1023
1023
1023
1023
1023
1023
650
877
1023
1023
1023
1023
1023
1023
606
818
1023
1023
1023
1023
1023
1023
576
768
1023
1023
1023
1023
1023
1005
536
677
1023
1023
1023
1023
1023
955
503
590
1023
1023
1023
1023
1023
930
490
540
1023
1023
1023
1023
1023
913
482
502
1023
1023
1023
1023
1023
909
480
478
1003
1023
1023
1023
1023
901
476
452
975
1023
1023
1023
1023
893
472
426
948
1023
1023
1023
1023
890
471
414
934
1023
1023
1023
1023
888
470
399
913
1023
1023
1023
1023
888
469
390
902
1023
1023
1023
1023
892
471
382
889
1023
1023
1023
1023
892
471
375
877
1023
1023
1023
1023
903
477
386
892
1023
1023
1023
1023
921
486
399
903
1023
1023
1023
1023
925
487
391
889
1023
1023
1023
1023
928
489
389
886
1023
1023
1023
1023
936
493
391
886
1023
1023
1023
1023
941
495
382
866
1023
1023
1023
1023
925
487
351
819
1023
1023
1023
1023
918
484
340
799
1023
1023
1023
1023
915
482
329
775
1023
1023
1023
1023
912
481
320
756
1023
1023
1023
1023
909
480
308
723
1023
1023
1023
1023
899
474
292
683
1023
1023
1023
1023
889
469
281
649
1023
1023
1023
1023
882
466
271
616
1023
1023
1023
1023
875
462
262
578
1023
1023
1023
1023
866
458
254
547
1023
1023
1023
1023
860
455
249
519
1023
1023
1023
1023
852
451
245
484
1023
1023
1023
1023
844
447
242
452
1018
1023
1023
1023
836
442
240
420
992
1023
1023
1023
825
437
237
385
961
1023
1023
1023
817
433
234
357
934
1023
1023
1023
809
429
232
329
906
1023
1023
1023
800
424
230
297
870
1023
1023
1023
788
418
226
264
828
1023
1023
1023
777
412
223
238
792
1023
1023
1023
766
407
220
213
755
1023
1023
1023
762
404
219
199
732
1023
1023
1023
760
404
219
179
683
1023
1023
1023
729
387
209
135
568
1023
1023
1023
704
374
202
121
529
1023
1023
1023
704
374
202
115
497
1023
1023
1023
703
373
202
110
450
1023
1023
1023
695
369
199
109
381
985
1023
1023
678
360
195
106
298
916
1023
1023
655
348
188
102
206
818
1023
1023
620
329
177
96
119
679
1023
1023
568
302
163
88
61
512
1023
989
507
269
145
78
43
350
919
845
432
228
122
65
36
217
742
685
350
184
97
52
29
118
588
554
282
147
77
41
22
51
449
438
222
115
60
32
17
14
311
319
160
82
42
22
12
7
189
209
104
52
27
14
8
5
95
110
54
27
14
7
4
3
79
74
36
18
9
5
3
477
1023
799
415
221
119
273
943
1023
1023
1023
561
301
559
1023
1023
1023
1023
1023
610
328
574
1023
1023
563
300
639
1023
1023
1023
1023
1023
1023
1023
1023
1023
1023
1023
1023
1023
1023
1023
1023
1023
1023
1023
1023
1023
1023
1023
1023
1023
1023
1023
1023
1023
1023
1023
1023
1023
1023
1023
1023
1023
1023
1023
1023
1023
1023
1023
1023
1023
1023
1023
1023
1023
759
409
224
124
69
39
22
13
8
5
4
3
2
2
2
1
1
1
1
1
1
1
1
1
1
1
1
1
1
1
1
1
1
1
1
1
1
1
1
1
1
1
1
1
1
1
1
1
1
1
478
1023
1023
1023
1023
1023
1023
1023
1023
1023
1023
1023
1023
1023
1023
1023
1023
1023
1023
1023
1023
1023
1023
1023
1023
1023
1023
1023
1023
1023
1023
1023
1023
1023
1023
1023
1023
1023
1023
1023
1023
1023
1023
1023
1023
1023
1023
1023
1023
1023
1023
1023
1023
1023
1023
1023
1023
1023
1023
1023
1023
1023
1023
1023
1023
1023
1023
1023
1023
1023
1023
1023
1023
1023
1023
1023
1023
1023
1023
1023
1023
1023
1023
1023
1023
1023
1023
803
435
356
465
612
777
699
367
199
110
61
34
20
12
7
5
3
3
2
2
2
1
1
1
1
1
1
1
1
1
1
1
1
1
1
1
1
1
1
1
1
1
1
1
1
1
1
1
1
1
1
1
1
1
1
1
1
1
1
1
1
1
1
1
1
1
1
1
1
1
0
0
1
1
1
1
1
1
1
1
1
1
1
1
1
1
1
1
1
1
1
1
1
1
1
1
1
1
1
1
1
1
1
0
1
0
1
1
1
1
1
0
1
1
1
1
1
1
1
1
0
1
1
1
1
1
0
1
0
1
1
1
1
1
1
0
1
0
1
1
0
1
1
0
1
1
1
1
1
1
1
1
1
1
1
1
1
1
0
1
0
1
1
1
1
1
1
1
0
1
1
1
1
1
0
1
1
0
0
1
1
0
0
1
1
0
1
1
1
1
1
1
1
1
1
0
0
1
0
1
1
1
1
1
1
1
1
0
1
1
1
0
1
1
1
0
0
1
1
1
17
108
157
85
42
21
11
23
97
163
161
80
40
20
10
19
84
183
230
143
71
36
18
39
133
253
313
218
110
56
66
128
196
284
339
248
125
69
138
244
328
398
415
306
158
89
139
242
370
515
583
508
328
201
228
326
433
539
616
572
437
374
439
532
605
663
698
646
547
502
563
653
724
788
795
679
535
475
520
607
677
738
758
660
509
446
505
624
707
754
752
671
515
433
455
510
584
651
670
590
455
406
473
539
563
582
564
459
306
231
271
354
420
494
538
466
323
237
273
343
392
463
537
511
378
288
322
390
443
481
515
457
332
282
336
414
457
463
478
414
279
183
173
218
269
335
377
283
146
77
48
86
144
215
272
210
109
55
29
46
115
208
288
241
123
62
73
184
284
346
380
305
163
83
43
39
41
51
35
18
10
5
3
2
2
1
1
1
1
1
1
1
1
1
1
1
1
1
1
1
1
1
1
1
1
1
1
1
1
0
1
1
1
1
1
1
1
1
1
1
1
1
1
1
1
1
1
1
1
0
1
1
1
0
1
1
1
0
1
1
1
1
1
1
1
0
1
1
1
1
1
1
1
1
1
0
1
1
1
1
1
1
1
1
1
1
1
0
1
1
0
0
1
0
1
1
0
0
1
1
1
1
1
1
0
1
1
1
1
1
4
170
311
293
325
479
581
657
854
990
842
528
279
166
163
319
633
837
820
706
761
917
1023
1023
1023
1023
1023
1023
1023
1023
1023
1023
1023
1023
847
473
258
141
78
43
24
14
8
5
4
3
2
2
1
1
1
1
1
1
35
290
675
1023
1023
1023
1023
1023
1023
1023
1023
1023
1023
1023
1023
1023
1023
1023
1023
1023
1023
1023
1023
1023
1023
1023
1023
1023
1023
1023
1023
1023
1023
1023
1023
1023
1023
1023
1023
1023
1023
1023
1023
1023
1023
1023
1023
1023
1023
1023
1023
1023
1023
1023
1023
1023
1023
1023
1023
1023
1023
1023
1023
1023
1023
1023
1023
1023
1023
1023
1023
1023
1023
1023
1023
1023
1023
1023
1023
1023
1023
1023
1023
1023
1023
1023
1023
1023
1023
1023
1023
1023
1023
1023
1023
1023
1023
1023
1023
1023
1023
1023
1023
1023
1023
1023
1023
1023
1023
1023
1023
1023
1023
1023
1023
1023
1023
1023
1023
1023
1023
1023
1023
1023
1023
1023
1023
1023
1023
1023
1023
1023
1023
1023
1023
1023
1023
1023
1023
1023
1023
1023
1023
1023
1023
1023
1023
1023
1023
1023
1023
1023
1023
1023
1023
1023
1023
1023
1023
1023
1023
1023
1023
1023
1023
1023
1023
1023
1023
1023
1023
1023
1023
1023
1023
1023
1023
1023
1023
1023
1023
1023
1023
1023
1023
1023
1023
1023
1023
963
935
953
966
962
993
1023
1013
938
890
892
907
909
945
987
961
873
824
825
847
875
897
876
824
773
746
780
775
744
753
756
719
666
638
658
686
682
672
660
624
587
568
578
603
607
647
669
626
574
563
587
555
500
482
494
463
419
416
442
434
406
394
394
364
337
323
305
303
300
359
387
330
261
238
241
276
318
355
377
352
317
327
382
425
466
506
534
515
445
357
264
179
135
110
106
103
61
34
69
148
192
206
200
165
135
140
151
139
137
146
161
158
124
91
78
74
110
149
172
123
61
36
24
32
62
133
182
157
83
42
41
49
34
31
56
58
33
31
50
70
79
106
117
82
40
20
42
89
97
79
74
61
33
17
9
5
3
33
82
78
40
35
54
50
26
22
35
39
39
29
18
13
20
28
63
66
51
35
43
50
45
65
71
45
22
11
6
3
5
32
56
58
28
14
7
4
2
2
1
1
1
1
1
1
1
1
1
1
1
1
1
1
1
1
1
1
1
1
1
1
0
1
1
1
1
1
1
1
1
1
1
1
1
1
1
1
1
1
1
1
1
1
1
1
1
4
2
1
1
1
1
1
1
11
38
37
18
9
5
6
24
41
32
16
8
4
2
2
2
32
63
77
81
88
103
124
125
98
74
69
72
64
66
77
68
59
59
38
19
10
14
28
43
47
23
12
8
7
4
2
2
1
1
1
1
1
1
1
1
1
3
3
3
16
19
38
53
115
151
128
80
60
53
36
25
38
42
41
55
64
39
19
11
26
43
39
20
29
48
76
113
94
54
26
13
8
42
90
117
118
104
74
36
23
20
43
58
76
108
111
84
48
28
18
23
61
109
111
82
41
43
84
104
101
116
127
116
94
71
59
85
103
110
89
73
45
63
110
157
168
145
107
73
65
83
68
60
96
114
102
91
72
60
46
26
51
98
101
84
65
47
46
54
58
67
60
61
87
73
60
56
70
67
40
20
10
6
8
7
13
50
53
29
15
9
13
29
62
89
78
64
52
50
56
89
125
158
167
130
72
36
18
9
19
54
63
74
49
31
22
44
60
84
92
58
30
34
25
38
80
98
87
50
48
100
166
229
302
365
380
362
322
268
223
169
119
62
32
17
9
5
3
2
2
26
65
100
93
51
25
13
12
34
53
56
50
44
33
55
65
83
108
108
95
89
80
87
127
136
119
129
110
78
72
78
106
128
128
129
158
143
75
104
168
175
135
92
75
83
107
109
126
157
153
138
152
168
155
132
113
122
159
183
174
153
142
151
185
208
204
206
189
213
230
234
231
235
236
241
254
277
285
247
241
274
294
282
278
277
266
253
254
254
243
230
230
251
265
275
271
257
276
282
272
241
261
270
254
225
217
203
204
211
234
254
249
236
229
221
197
210
241
268
267
252
236
237
237
276
304
307
271
211
166
154
199
230
247
259
275
300
303
291
270
271
285
283
264
249
261
261
245
251
270
285
312
337
329
317
302
318
345
324
307
331
352
351
339
341
332
302
315
358
376
366
338
320
323
318
335
368
423
437
423
392
365
362
371
399
426
435
402
385
403
408
415
421
413
411
402
398
401
397
410
439
456
429
383
354
330
316
322
380
396
382
386
396
430
439
427
417
403
392
387
384
376
369
387
416
430
402
373
372
361
340
352
374
398
392
371
363
376
392
417
416
406
433
448
451
436
403
374
382
404
416
423
433
435
416
408
414
423
439
409
375
372
390
405
424
427
409
424
458
469
455
438
460
470
451
443
430
425
428
415
424
459
491
474
437
424
423
450
464
487
510
502
478
484
482
472
468
463
477
493
493
487
490
475
457
485
507
507
504
485
451
454
467
489
507
523
522
521
506
485
512
546
553
545
534
540
557
545
567
626
623
577
521
495
493
492
508
530
541
537
537
525
526
533
533
538
511
494
478
472
500
517
510
526
538
510
470
455
468
488
515
555
618
672
701
734
755
749
748
758
735
683
635
578
522
498
495
497
505
477
444
432
448
464
496
527
537
551
582
595
571
530
505
506
523
519
525
527
500
498
518
548
564
560
553
542
527
518
527
554
568
552
546
547
546
568
615
659
657
605
561
535
536
541
560
583
591
597
589
590
583
576
593
598
604
634
663
689
688
665
651
648
662
675
665
667
684
704
694
701
684
676
676
682
679
662
695
749
788
774
710
647
626
635
654
685
704
700
709
720
712
712
713
710
707
683
673
662
647
653
663
671
675
637
596
581
574
588
626
642
629
602
558
540
558
571
573
567
565
569
588
624
611
575
546
541
571
583
577
568
573
573
574
573
578
553
527
549
609
628
636
652
671
665
640
617
589
610
641
655
660
653
643
660
676
696
707
710
715
709
702
700
688
677
687
706
730
751
732
716
705
677
647
659
691
712
703
687
671
676
676
674
687
710
734
756
723
668
660
700
709
683
651
643
640
636
639
649
674
672
673
689
692
688
685
711
724
735
697
647
654
669
642
637
637
632
625
624
628
640
648
655
639
638
651
650
651
657
626
606
605
609
614
597
590
612
642
630
598
577
569
561
568
591
611
631
626
599
584
569
568
585
618
627
630
648
658
682
701
667
643
611
579
575
597
618
636
630
628
624
620
609
600
591
596
622
612
599
617
649
655
639
620
624
655
652
660
694
708
692
663
626
619
653
671
665
659
634
648
670
673
679
683
674
654
624
611
603
614
662
671
654
624
607
600
615
641
659
659
674
682
663
636
631
648
670
673
688
657
632
626
639
647
660
689
716
729
707
674
668
668
663
677
689
665
663
675
656
639
663
682
679
662
636
623
618
596
622
652
687
729
728
738
786
833
882
927
943
919
850
782
718
659
629
615
596
556
539
539
533
547
581
614
640
630
594
571
594
642
663
644
603
563
548
546
556
564
572
605
636
651
644
603
572
573
577
576
591
599
599
623
663
679
677
669
643
609
562
539
521
515
532
577
635
676
707
694
664
651
635
631
622
617
604
610
618
614
616
653
693
713
697
675
654
661
667
652
651
657
629
593
605
642
686
720
745
734
709
694
695
721
728
719
706
703
703
685
686
717
752
754
749
703
666
643
610
609
619
653
633
604
641
678
663
646
641
631
607
595
607
619
609
607
617
623
598
563
553
558
553
545
583
615
592
549
536
538
542
525
535
557
592
601
590
577
559
551
579
603
612
595
588
623
630
620
629
659
637
603
594
598
591
588
591
610
620
613
624
634
635
641
640
644
646
634
607
596
602
621
638
666
681
664
639
613
581
603
622
633
653
656
644
607
589
597
637
662
652
636
631
619
620
634
645
646
657
650
634
618
624
624
581
584
610
614
600
583
573
599
617
607
612
617
606
613
634
663
634
623
626
635
634
630
611
583
602
636
652
651
634
604
588
607
606
614
630
624
604
576
601
640
667
670
662
644
633
634
635
639
643
638
622
637
644
632
606
622
637
634
608
591
575
579
598
622
610
624
668
687
663
633
588
568
565
594
637
647
643
654
644
640
677
700
690
659
644
628
594
586
598
611
616
630
624
603
604
611
628
655
686
671
647
642
633
606
590
611
610
595
606
619
629
647
655
677
702
690
655
623
601
579
583
610
629
641
644
642
628
623
660
691
716
723
686
637
618
602
590
574
581
606
612
594
575
582
606
589
577
579
581
581
578
564
562
600
641
675
718
776
860
947
971
923
848
781
722
654
607
578
525
477
444
434
455
489
542
578
569
536
523
528
526
534
551
550
553
581
590
589
614
611
575
530
512
525
539
532
512
525
529
505
497
549
582
579
578
601
619
608
587
577
569
575
563
552
557
560
555
555
577
581
594
578
574
586
593
617
690
728
706
623
536
499
506
535
559
578
573
556
571
585
586
621
661
654
609
605
606
603
618
642
661
653
639
611
587
609
626
684
735
729
662
611
590
594
619
617
614
622
617
606
602
594
590
596
613
627
621
604
595
569
566
570
544
561
572
552
537
539
532
537
557
550
532
536
538
534
539
544
558
559
557
556
565
576
560
564
547
534
525
535
534
527
538
553
569
582
565
537
518
536
553
542
528
548
589
598
586
580
579
575
570
568
554
541
528
535
546
567
577
560
545
542
552
557
536
513
515
529
554
576
580
522
462
460
481
505
519
534
503
492
493
502
518
539
532
527
526
519
501
485
487
503
513
523
556
544
508
499
501
492
478
493
501
495
521
527
544
565
556
536
513
529
540
532
531
536
540
531
496
496
566
596
579
537
560
582
568
550
534
514
504
498
508
528
540
510
491
504
523
557
575
581
566
544
538
541
552
584
594
565
563
557
538
553
586
591
574
573
570
571
565
581
587
597
603
593
581
565
537
550
610
612
621
626
609
571
551
552
557
570
571
564
572
554
556
592
605
583
560
565
579
587
610
619
614
611
613
620
620
609
579
560
563
580
604
614
619
605
608
600
627
657
636
617
602
573
568
588
598
606
617
620
628
638
645
628
590
583
599
624
632
595
588
607
616
647
680
670
617
602
627
690
782
848
869
858
862
862
840
787
721
638
555
494
460
448
437
458
490
509
535
547
520
507
515
518
522
538
543
528
504
491
494
510
542
541
550
560
535
529
500
476
468
476
505
517
506
490
501
520
524
528
531
550
550
538
533
534
544
553
544
529
510
507
538
598
640
625
579
540
528
537
530
527
537
543
538
512
525
573
574
595
609
583
548
549
548
578
600
608
613
600
595
597
605
616
624
635
632
658
684
672
640
621
613
577
552
554
562
545
533
533
544
572
559
541
549
548
540
534
542
552
560
534
507
502
515
509
505
527
547
535
498
478
504
516
497
454
448
462
479
494
504
503
518
527
503
484
487
484
468
438
433
445
442
464
503
513
500
501
520
530
537
549
546
544
545
551
546
519
474
461
484
512
528
532
532
548
557
546
539
535
538
551
541
518
514
535
547
534
519
516
524
508
523
536
540
541
532
532
529
505
506
522
519
521
528
531
520
505
486
483
484
496
521
541
556
502
450
458
493
494
488
484
477
492
502
507
519
530
525
514
496
498
527
556
561
540
517
520
516
493
492
485
484
494
514
517
493
497
522
535
542
536
518
490
464
463
480
503
534
512
499
502
522
523
526
531
517
521
540
534
524
522
512
509
512
512
539
564
552
520
502
505
522
528
526
541
538
512
511
535
551
530
531
539
526
506
512
547
565
561
557
558
557
541
525
529
533
532
528
524
547
567
572
565
550
543
537
515
516
527
533
540
560
561
554
544
551
562
569
575
572
554
530
512
497
500
512
499
512
568
611
609
592
573
566
588
589
548
514
506
519
511
514
503
497
477
446
445
480
505
531
551
569
562
514
487
515
564
617
670
726
758
768
783
753
683
599
533
491
461
433
406
410
454
498
497
494
484
463
449
436
442
462
483
502
517
512
488
476
478
488
495
497
484
484
484
474
464
464
458
458
481
508
499
489
491
497
493
487
476
486
516
540
546
537
526
510
500
511
508
491
480
480
493
499
489
488
495
499
508
521
549
565
557
531
509
532
547
541
530
553
573
565
537
534
533
548
564
569
563
548
561
581
589
592
579
565
564
566
573
571
577
600
595
606
620
591
555
546
565
581
559
547
542
545
519
481
461
466
476
464
445
461
482
479
464
464
465
449
449
458
461
454
476
469
459
455
440
435
422
438
461
475
471
468
480
481
468
468
464
455
439
427
465
514
530
479
432
429
446
469
488
483
496
509
489
487
530
540
520
490
462
458
452
454
467
481
480
482
493
505
515
536
551
519
484
495
495
484
483
489
500
505
485
459
463
478
486
505
538
535
505
468
436
441
456
464
477
494
515
518
522
511
507
506
504
537
556
540
499
491
501
488
476
475
465
455
476
476
471
478
469
487
529
548
534
501
464
463
491
507
500
492
490
493
491
512
534
528
494
478
463
456
448
452
472
477
478
484
503
518
500
483
488
519
538
526
497
469
466
471
468
457
439
449
473
467
465
476
499
528
526
499
493
494
478
472
504
515
501
494
475
474
485
496
511
525
516
525
482
439
438
455
465
473
485
491
504
503
491
481
478
454
451
461
462
454
477
507
512
499
479
456
449
469
491
503
519
510
485
474
479
481
472
479
486
494
511
510
503
483
479
491
501
495
532
552
543
479
408
399
426
438
439
419
420
441
454
458
460
471
480
502
537
577
614
667
731
782
819
821
801
741
646
552
490
444
415
408
402
400
367
353
389
437
466
490
525
522
478
435
420
436
456
468
483
486
469
445
432
448
451
457
475
502
502
490
490
499
500
489
463
461
493
515
515
484
454
456
496
503
501
513
504
494
506
527
530
521
518
500
512
509
498
480
471
498
528
535
528
530
536
528
500
491
494
509
524
526
530
528
532
558
556
556
547
552
587
612
600
558
501
475
491
538
560
540
531
518
524
525
538
530
523
543
566
560
547
547
520
509
512
527
528
494
453
432
434
440
434
419
398
379
407
429
423
423
452
440
421
415
407
416
432
448
474
483
460
439
427
426
444
458
470
465
478
474
448
440
434
434
461
471
465
456
449
450
478
494
508
497
477
469
465
451
441
446
484
492
502
515
506
506
500
504
528
566
559
533
506
482
461
465
471
493
510
513
515
514
498
525
527
516
492
460
456
477
490
502
506
519
520
506
493
479
486
498
518
518
513
501
497
489
492
519
527
524
512
494
495
521
537
521
499
487
475
481
497
498
514
522
520
506
492
479
478
494
493
501
524
529
532
539
539
518
510
521
532
523
513
499
473
484
507
504
479
468
500
540
533
497
489
522
540
526
517
532
550
557
539
501
462
460
501
529
526
516
493
495
521
528
523
516
512
514
497
501
527
531
519
513
501
502
510
489
466
489
517
533
538
527
527
515
498
490
498
516
522
513
547
568
545
518
517
497
481
469
481
503
513
534
552
530
511
508
513
527
516
501
507
510
516
518
505
515
532
553
555
550
544
527
518
527
543
538
531
514
500
471
459
486
521
495
489
477
462
461
475
488
483
481
513
528
547
585
634
689
770
814
806
764
694
653
597
536
507
492
455
419
383
353
353
371
402
426
451
436
447
479
509
515
479
464
479
473
439
435
436
447
462
459
466
467
479
498
514
486
468
475
453
439
452
456
458
469
484
512
517
496
478
483
488
524
560
553
531
524
518
492
469
466
477
499
507
495
502
531
531
529
542
548
547
531
527
539
562
580
578
563
545
546
571
554
540
549
571
587
582
565
550
568
570
557
586
600
577
554
542
560
572
561
571
559
547
551
555
552
537
526
545
557
550
514
497
501
530
546
544
518
494
471
432
430
423
413
430
451
472
468
460
454
438
436
460
497
483
446
424
414
387
399
423
448
476
476
448
433
433
434
434
441
452
468
500
495
479
456
431
412
424
457
482
485
484
471
464
456
457
452
444
413
428
447
486
516
507
474
458
429
411
433
448
452
460
478
477
467
450
418
412
438
464
458
448
438
437
465
464
478
458
438
432
439
426
422
450
473
451
435
462
466
438
416
427
445
462
474
472
468
446
439
446
450
437
419
414
411
397
410
447
479
477
452
434
457
469
452
427
437
461
467
435
416
426
453
498
522
499
454
440
430
413
419
450
480
493
502
489
460
437
449
472
479
498
502
488
454
443
444
449
480
496
493
501
507
485
477
487
508
506
490
482
482
489
473
474
510
527
517
511
528
508
497
512
540
539
548
549
505
475
476
489
507
532
534
533
528
524
498
495
521
525
524
520
513
515
510
508
521
525
525
543
563
582
557
546
546
555
560
556
554
552
576
557
553
564
552
535
530
510
514
562
597
596
572
544
525
507
514
512
542
558
540
533
530
502
495
498
523
547
549
512
487
485
516
548
591
669
749
800
843
839
794
753
695
635
586
535
487
442
423
413
434
454
477
526
563
541
505
465
459
458
455
458
495
492
479
512
527
535
541
546
545
525
488
480
487
481
482
485
499
524
551
559
570
558
536
526
497
483
476
462
475
519
534
540
556
544
525
517
513
514
505
506
517
512
510
529
544
545
539
535
527
550
535
562
606
606
562
541
535
527
504
502
510
542
572
557
558
560
556
579
592
587
565
569
562
566
562
547
563
558
568
561
576
584
599
607
606
593
563
531
510
500
507
517
501
491
473
467
480
499
515
511
503
518
516
500
471
437
407
422
468
493
510
498
493
500
496
496
493
490
464
460
486
479
464
474
514
525
515
493
498
530
526
512
534
547
509
472
462
476
494
504
517
514
502
487
493
510
516
523
525
535
539
534
536
545
508
498
536
562
571
542
513
491
492
504
525
524
519
504
501
518
510
525
556
566
560
537
519
511
491
483
496
518
540
532
485
494
519
525
536
570
588
588
562
523
497
489
497
512
520
525
538
533
514
497
505
516
498
525
577
570
546
531
529
523
502
478
472
507
505
483
508
541
540
537
542
558
554
528
506
500
515
534
559
553
503
487
507
524
507
519
546
542
519
495
485
511
509
497
500
526
534
516
519
532
533
533
524
527
534
547
551
538
501
466
487
519
524
512
529
553
579
573
538
518
509
496
493
503
519
519
535
545
530
509
523
539
542
535
537
542
529
520
535
552
558
556
552
531
514
505
515
547
562
555
532
518
514
510
537
550
541
539
549
553
542
531
527
529
549
562
557
565
559
557
558
566
559
557
572
563
522
525
542
535
541
529
528
521
496
486
498
498
502
518
540
527
505
497
504
528
563
605
655
686
728
796
839
843
815
777
731
658
566
491
450
430
442
450
462
472
477
474
458
451
456
469
492
494
491
492
506
516
518
508
505
521
515
493
501
482
463
481
495
507
499
491
513
533
522
501
510
526
540
556
565
582
573
543
525
537
518
499
512
528
522
514
549
545
522
535
555
597
604
576
555
514
489
509
544
572
593
590
569
563
552
574
601
611
617
597
569
558
547
555
577
593
604
606
628
634
613
582
558
562
577
586
592
601
600
581
585
601
612
584
540
540
544
531
527
550
568
547
516
536
542
522
501
490
477
449
443
443
425
428
466
485
486
497
503
478
460
448
447
470
508
522
492
462
434
406
405
422
453
465
480
484
475
459
462
474
486
474
458
442
464
480
499
501
497
495
492
493
492
480
481
487
487
476
487
514
524
506
504
497
498
510
510
518
509
499
493
505
501
499
522
507
495
485
480
492
507
497
504
515
498
493
506
534
529
523
517
501
500
511
516
526
525
503
495
502
491
473
499
538
543
537
521
504
494
478
484
487
500
501
494
515
533
542
521
512
514
502
489
504
518
502
532
568
577
534
497
497
501
493
505
514
500
496
504
509
503
512
526
551
565
557
544
533
529
508
519
530
553
551
534
535
518
509
510
521
532
539
531
506
459
466
503
532
537
543
556
556
541
504
489
518
520
520
532
546
540
512
502
505
529
541
550
540
545
538
520
512
510
502
514
519
528
521
503
518
536
532
527
528
502
483
490
532
541
511
511
531
539
538
528
534
554
555
537
519
506
488
495
518
533
525
534
530
502
498
504
536
551
536
519
508
495
455
412
416
458
474
474
482
486
481
466
453
443
459
478
494
522
549
601
664
716
740
742
741
711
652
595
543
503
466
422
379
355
351
350
359
373
392
414
422
409
394
414
418
434
433
431
430
432
421
409
425
460
457
429
386
350
358
393
438
473
471
463
452
447
428
415
427
443
451
448
448
448
443
457
473
476
453
453
472
497
479
474
498
536
523
479
447
457
459
466
480
498
480
475
487
489
472
497
542
554
567
558
538
519
510
514
536
544
546
529
549
550
544
555
562
572
592
596
575
546
508
514
532
549
544
555
573
585
556
530
533
540
532
514
494
502
504
491
497
497
480
456
458
454
448
461
483
478
469
474
481
500
495
472
448
442
469
481
463
434
406
421
440
460
469
474
463
452
433
440
456
477
482
468
454
487
494
467
454
463
482
498
499
484
469
487
503
508
514
501
487
484
486
493
486
480
498
517
520
529
521
522
520
509
489
488
496
507
492
491
502
498
524
546
541
539
503
503
525
526
508
517
527
518
489
474
500
520
532
523
504
510
505
485
487
494
517
522
516
491
473
502
541
545
532
503
492
488
491
490
496
492
497
537
556
544
498
466
463
481
496
500
498
503
483
512
518
483
465
488
522
528
516
496
499
524
520
515
529
519
491
491
492
502
535
538
518
496
486
503
516
503
485
501
525
531
507
505
510
533
549
564
577
560
510
461
469
510
545
561
563
544
511
491
500
513
521
508
473
481
511
534
562
573
547
534
548
531
510
504
545
568
580
568
545
534
522
494
505
533
558
547
525
495
454
465
524
568
579
556
547
548
528
505
494
517
535
544
539
544
558
556
582
590
580
546
528
533
531
531
543
551
530
521
544
555
523
472
456
476
488
503
512
527
525
515
515
515
533
522
546
583
607
641
694
766
793
786
788
756
688
628
577
532
504
470
421
383
370
410
457
481
505
502
519
530
504
480
484
483
498
494
466
463
454
430
453
481
492
494
500
489
485
479
470
475
494
506
501
480
464
465
465
499
553
564
529
481
461
446
450
478
503
515
508
498
475
489
518
520
528
514
499
487
493
496
493
494
495
506
527
519
483
498
533
587
630
619
583
557
529
504
506
528
540
533
534
544
551
533
518
538
568
589
602
603
561
522
514
530
549
545
548
531
529
530
528
535
555
555
548
547
518
466
459
459
453
464
448
438
443
455
474
501
525
500
455
431
421
400
381
400
429
435
455
464
478
483
504
502
481
454
438
430
444
425
418
445
478
492
490
487
475
451
430
437
472
480
471
469
482
477
469
480
489
495
500
496
469
456
474
525
543
513
495
497
489
477
479
503
519
529
540
520
498
477
488
537
574
543
488
459
457
452
457
483
505
509
519
486
449
431
465
514
546
560
559
529
493
478
490
518
542
536
537
533
508
490
503
519
539
538
555
591
566
504
478
467
484
493
491
500
525
524
514
533
556
569
564
556
528
497
496
513
524
526
525
527
531
526
525
553
542
556
606
600
582
543
508
527
539
531
514
508
516
526
531
519
553
580
589
555
526
500
484
515
542
531
531
535
541
545
526
530
562
568
544
523
510
504
513
520
533
544
565
567
545
533
531
528
531
559
562
551
540
503
489
493
537
571
572
583
566
530
520
557
614
611
559
519
505
513
533
552
569
574
590
594
577
555
535
534
527
547
583
590
578
558
549
569
587
591
611
607
598
571
552
569
586
584
572
554
551
559
568
574
572
590
593
570
545
522
515
545
555
550
546
535
518
513
509
536
572
553
516
520
543
577
615
655
687
725
774
817
831
833
795
747
707
644
576
513
469
426
411
432
453
458
472
488
480
480
485
503
499
494
506
504
483
462
495
503
513
497
482
484
486
479
475
472
486
517
517
508
504
487
476
495
507
532
536
543
536
501
489
496
523
552
554
549
517
508
536
538
550
561
562
572
566
557
555
543
540
533
549
569
558
556
564
557
577
607
609
602
588
561
536
555
584
586
595
612
604
574
573
591
613
623
613
617
624
630
626
607
584
560
558
557
574
576
564
583
586
576
580
578
556
517
510
516
527
510
504
522
515
488
454
450
484
509
520
523
502
470
454
454
453
474
509
503
480
435
427
421
437
449
439
452
463
450
426
459
504
517
511
514
502
474
454
467
477
492
504
523
518
487
475
483
505
512
516
516
498
476
475
484
499
517
503
507
511
507
508
514
518
510
501
506
528
530
544
548
510
497
507
513
508
496
489
502
534
527
498
502
506
494
487
494
523
540
539
520
505
492
489
487
464
499
524
539
524
502
493
492
498
512
527
520
517
518
519
519
518
507
503
489
470
478
503
500
504
533
544
526
504
494
497
515
517
512
528
549
555
543
506
480
491
492
492
513
537
532
493
494
515
526
521
509
497
483
487
489
513
543
547
532
502
481
474
502
549
554
543
528
506
486
482
503
514
540
566
541
518
498
491
498
513
517
517
515
497
483
487
509
534
537
519
517
512
513
532
552
533
525
526
496
491
522
514
499
502
513
532
539
524
504
498
510
545
549
518
509
518
505
503
509
526
524
519
531
547
547
540
524
503
501
514
528
540
540
528
523
541
550
541
538
540
520
502
528
535
524
535
532
519
512
493
483
486
487
516
529
526
516
503
477
446
464
510
556
597
621
648
708
762
795
814
786
751
675
581
504
454
433
422
408
414
409
411
420
437
460
470
497
510
486
481
473
472
463
468
472
469
456
454
475
497
502
497
488
484
487
479
484
484
487
491
510
540
533
505
474
472
478
464
488
501
483
487
513
515
508
510
527
547
552
524
510
527
536
539
553
559
540
506
509
531
550
544
535
538
526
534
559
574
565
554
571
564
553
536
524
531
568
592
587
583
581
573
577
588
586
589
584
581
566
544
544
562
570
578
572
535
537
565
548
529
524
513
511
506
509
484
463
472
470
476
476
479
488
478
450
430
430
434
436
424
409
408
415
422
434
429
419
450
455
435
429
451
458
443
427
411
405
406
425
441
469
486
494
495
471
445
431
434
453
466
468
457
469
473
467
467
484
514
532
523
487
452
442
464
504
522
511
502
476
467
491
509
518
509
501
479
482
476
478
478
486
501
495
518
523
473
455
495
541
557
510
470
464
485
504
513
509
492
478
464
453
473
506
522
519
513
503
502
502
501
503
509
512
513
514
523
518
493
487
524
533
511
504
473
476
495
478
491
534
558
537
518
530
514
491
507
533
542
531
506
507
509
532
576
581
542
493
479
487
491
495
504
521
546
554
537
532
519
528
528
517
512
506
503
524
531
518
530
550
548
527
498
477
475
497
526
547
539
528
527
512
495
498
512
525
527
533
515
504
499
501
518
532
510
514
530
538
499
492
496
505
517
526
520
504
482
499
513
518
529
513
497
493
487
508
515
518
513
504
474
491
502
486
500
523
526
507
494
476
461
461
466
477
496
509
513
555
538
509
496
491
490
492
507
504
463
461
483
513
516
513
519
524
509
501
501
518
538
550
541
527
499
482
488
489
459
468
484
483
461
446
447
470
501
498
485
480
480
477
494
513
510
525
578
638
709
761
761
754
736
686
634
571
522
489
445
404
393
406
441
475
468
450
435
414
438
468
490
512
488
474
468
472
482
477
471
464
434
433
458
467
480
488
500
486
473
449
454
469
476
453
447
485
495
480
478
485
501
507
519
513
497
459
449
462
458
448
444
471
479
495
508
507
512
520
521
512
491
481
498
497
512
518
517
475
442
468
506
534
539
547
535
533
525
520
539
545
540
535
537
543
533
535
552
577
572
562
552
528
510
522
541
545
542
540
523
497
489
478
487
495
483
477
479
457
445
436
449
478
468
459
459
448
439
441
452
452
446
438
431
438
449
454
446
432
423
413
415
427
419
416
439
448
430
464
492
481
445
408
398
429
446
442
452
470
475
475
464
471
501
516
507
464
437
450
460
477
491
487
472
478
476
477
526
559
549
541
529
496
486
489
480
487
489
492
486
479
476
484
502
531
544
533
518
512
493
470
463
489
510
522
536
519
494
497
531
538
523
500
489
481
482
486
507
511
499
515
513
526
521
512
514
502
509
516
527
522
512
501
520
536
546
539
498
472
477
494
537
558
548
528
512
512
516
506
511
536
564
547
519
496
475
472
493
523
561
586
554
530
519
534
534
525
509
503
530
535
534
521
520
528
543
547
558
557
536
538
533
525
531
540
522
525
519
532
546
549
567
574
556
532
511
477
472
482
529
575
585
590
552
538
534
565
603
597
568
535
519
508
516
511
504
537
550
542
546
534
527
550
561
554
542
537
536
529
537
552
553
547
540
531
526
521
536
566
578
579
579
552
529
524
540
559
559
549
535
526
524
508
528
551
533
543
582
611
604
559
527
534
555
559
546
541
543
538
543
573
590
588
569
557
573
587
566
552
545
561
559
538
510
498
493
492
497
508
525
532
521
515
530
536
548
561
549
526
536
557
610
672
723
771
828
859
860
830
779
719
637
550
481
436
408
403
404
427
443
440
443
457
479
488
467
468
486
489
504
517
485
486
519
561
596
579
537
501
473
457
461
485
504
508
492
480
466
471
484
514
549
570
558
521
486
469
487
522
535
520
515
513
524
498
518
551
561
551
530
536
533
524
527
534
553
565
574
574
562
539
545
576
595
596
595
567
551
548
550
579
586
597
606
612
598
584
586
615
653
648
602
588
575
561
560
587
604
592
610
620
590
588
619
617
571
539
539
535
526
502
489
511
527
533
503
501
510
511
505
500
495
501
500
486
471
478
513
518
521
491
451
441
432
402
411
450
482
467
458
483
497
484
496
505
499
492
485
488
476
450
452
488
510
503
517
529
503
476
476
468
485
486
481
476
488
493
499
523
528
531
517
498
498
501
502
506
522
548
538
529
541
534
495
476
470
463
461
483
486
490
484
483
503
514
525
521
493
454
456
485
508
521
516
505
491
488
492
505
527
539
529
534
538
498
479
499
514
522
506
486
493
479
461
476
511
518
521
519
500
494
501
518
547
561
546
523
502
498
510
530
527
496
498
507
514
514
508
524
511
516
536
532
509
461
467
502
520
537
564
567
553
522
496
478
496
517
509
496
507
520
524
523
527
530
522
508
510
504
499
510
525
548
569
573
562
540
507
480
465
465
479
486
499
509
508
505
528
520
508
519
533
517
515
539
555
543
533
527
526
510
505
516
531
543
539
539
516
495
498
500
495
525
534
526
524
518
511
522
542
552
541
519
506
504
493
509
555
568
557
548
533
513
504
514
540
542
539
524
512
504
510
524
508
526
548
550
546
529
530
553
564
550
537
518
499
484
495
506
497
494
480
472
493
527
537
531
543
527
517
531
565
595
630
698
768
813
825
791
753
696
625
564
519
476
450
425
419
413
409
431
460
468
475
477
463
455
455
470
501
507
490
473
477
494
519
515
500
482
469
482
488
471
467
469
487
514
508
485
485
508
521
532
531
521
512
516
512
487
476
483
491
498
507
518
510
478
473
501
552
584
563
543
530
530
524
518
519
509
521
518
524
540
568
568
558
562
576
579
571
562
560
558
575
577
591
581
552
518
526
551
576
597
592
590
590
593
583
581
590
566
524
514
531
568
569
562
542
521
505
500
491
488
503
502
489
474
475
478
470
455
455
475
478
474
464
463
447
414
412
430
456
470
475
462
451
438
410
438
476
467
444
440
447
444
449
449
451
472
476
475
487
504
505
489
466
436
433
467
489
488
487
498
497
489
490
505
497
478
456
480
507
518
522
502
472
468
474
487
499
505
489
490
479
462
476
486
505
514
529
542
520
495
479
485
496
502
502
502
508
502
493
489
505
508
506
503
482
467
474
500
511
519
528
541
519
507
500
503
516
526
514
499
496
509
504
486
490
509
513
475
440
466
483
495
514
521
503
508
511
508
503
498
506
533
529
500
486
483
482
505
526
524
513
513
511
506
491
480
482
508
527
531
540
498
466
469
503
518
518
515
530
538
514
487
475
483
488
493
498
506
497
500
529
543
539
519
514
511
493
485
495
527
533
509
489
489
501
509
519
537
546
538
530
507
485
463
468
507
525
518
496
476
453
470
525
545
538
532
522
508
491
482
484
516
534
534
520
514
509
502
509
537
549
527
493
482
486
491
513
538
546
536
532
540
520
496
503
529
534
522
516
528
524
525
542
557
551
528
516
501
511
521
530
528
525
525
522
519
516
513
523
522
506
506
511
507
500
500
501
490
492
508
507
495
469
467
485
510
530
564
601
623
652
692
753
807
810
775
711
638
565
516
489
477
458
430
418
424
416
434
463
471
481
482
491
485
482
502
529
523
478
419
429
452
467
482
506
514
498
487
494
495
510
520
516
490
481
489
489
473
483
484
493
500
506
524
526
524
518
507
525
531
544
542
512
488
495
503
520
550
553
532
542
539
510
518
542
545
546
546
563
588
555
500
518
560
578
593
591
567
544
542
565
588
584
562
555
581
590
594
607
630
623
588
581
599
603
583
595
586
584
586
590
598
582
584
586
582
564
561
553
538
499
477
504
539
536
533
507
505
498
493
486
477
449
461
478
471
454
451
473
478
467
473
485
485
473
458
465
467
472
455
444
460
470
479
483
492
494
499
504
504
479
475
478
487
492
495
499
499
499
498
486
503
514
506
506
512
487
468
477
491
509
527
523
490
465
484
521
534
530
515
523
524
506
494
485
477
501
523
527
529
516
500
510
541
533
507
502
489
488
495
508
509
514
507
507
520
508
479
474
505
525
518
510
503
489
496
521
539
547
561
545
511
480
482
496
505
522
519
523
522
495
465
474
515
536
527
516
532
510
471
482
496
511
513
517
509
502
512
538
554
556
531
521
525
509
486
491
512
515
521
531
529
526
505
495
519
535
549
532
497
472
473
507
542
556
544
527
519
501
483
483
495
509
508
507
519
535
514
495
503
523
519
499
507
512
506
507
512
512
533
533
529
521
515
518
541
539
531
510
482
472
491
510
529
539
547
548
537
531
510
490
509
524
525
513
475
440
467
517
548
556
562
552
548
556
572
573
564
536
523
504
488
485
489
499
516
529
538
543
541
533
523
526
563
588
583
577
535
496
512
543
572
549
514
493
503
499
476
478
536
563
543
509
481
470
465
476
491
517
522
531
584
621
665
727
787
830
853
819
735
669
628
574
528
485
440
405
410
410
396
397
426
466
470
442
449
460
451
440
472
504
531
543
519
504
477
465
476
487
485
466
446
435
447
443
472
530
534
502
471
463
482
495
508
507
491
488
496
497
486
523
578
584
533
494
493
496
493
493
505
534
542
538
528
538
549
531
525
519
521
541
550
552
566
564
549
572
578
586
578
562
542
544
546
539
556
580
583
579
567
557
592
628
626
600
578
565
560
550
546
564
580
591
595
580
571
576
566
547
535
509
490
463
464
472
484
501
495
493
501
486
462
471
487
490
468
461
472
471
469
458
478
511
504
470
441
413
390
411
454
477
479
462
459
462
435
442
477
490
487
486
489
483
468
456
473
494
510
509
475
451
464
472
482
494
505
505
490
493
470
470
468
489
505
501
485
473
460
450
484
513
531
525
522
503
492
476
465
476
487
524
523
483
460
485
508
502
499
502
500
462
423
447
503
524
526
517
504
479
462
477
500
499
504
521
509
484
471
476
508
529
521
504
500
477
465
458
456
485
504
497
523
529
503
495
503
501
500
495
466
440
448
479
526
547
546
546
537
510
483
483
500
507
502
525
525
534
524
502
498
503
514
522
518
509
493
488
506
523
513
510
533
526
480
459
482
526
520
493
503
520
524
532
522
519
517
517
520
497
485
504
550
548
540
512
498
503
479
477
498
519
550
559
547
528
501
483
495
511
518
529
514
508
503
489
490
505
514
528
532
536
528
512
518
532
527
516
513
511
513
522
524
551
538
525
529
521
513
515
521
550
562
567
569
557
543
544
531
513
503
507
514
516
509
484
479
501
503
495
493
490
474
481
498
517
515
528
530
542
566
606
662
705
739
770
789
783
761
707
657
587
517
460
418
398
392
381
390
423
447
452
462
465
481
488
490
487
482
490
496
470
445
454
472
492
490
485
481
477
476
492
517
519
508
528
541
507
484
457
462
487
517
512
500
498
487
462
463
495
527
544
551
510
477
471
486
512
514
510
529
533
525
521
526
527
513
491
492
504
515
497
528
559
576
583
569
549
555
552
535
552
570
577
575
584
594
591
587
595
610
604
590
580
589
585
592
594
576
568
579
580
557
536
553
585
605
572
537
515
484
476
499
532
542
531
519
503
484
481
483
491
499
490
456
440
433
436
464
499
491
471
452
436
436
423
415
442
475
489
508
503
471
470
467
471
493
484
462
454
445
452
471
479
487
494
492
482
457
431
455
487
489
478
466
472
495
486
462
466
484
498
497
502
495
496
507
504
518
544
552
553
518
492
483
498
501
495
484
494
479
474
449
446
452
440
446
457
501
545
554
548
520
484
468
467
463
472
482
502
510
510
525
533
501
483
492
477
471
501
520
514
500
496
506
521
509
508
513
492
477
476
474
490
497
503
510
499
477
474
511
513
524
514
506
495
478
477
459
474
509
535
532
506
472
472
498
540
556
544
513
502
490
497
505
499
502
491
496
488
483
494
495
489
511
538
528
487
457
470
499
510
522
532
531
513
491
486
510
552
562
544
504
476
480
477
487
513
521
507
510
506
509
501
496
493
494
502
508
512
510
502
501
503
520
531
536
541
500
476
506
529
557
546
525
516
519
533
541
553
562
563
554
526
488
484
499
527
540
525
529
541
546
523
526
545
551
567
563
528
495
489
514
535
545
552
541
536
483
463
466
495
515
509
516
525
521
516
515
530
533
510
503
509
515
499
497
527
566
632
708
753
769
770
751
718
687
644
584
527
451
398
430
445
428
432
475
474
463
478
492
487
505
529
522
515
494
471
472
488
495
488
469
449
473
496
496
485
477
479
490
495
479
491
512
510
514
505
495
476
469
487
514
557
567
547
536
544
513
501
520
537
535
532
545
546
531
535
538
548
572
572
561
569
583
566
527
544
567
583
560
523
519
537
578
595
581
577
577
587
576
572
589
600
611
614
622
650
627
592
591
616
629
620
612
612
609
580
576
600
617
598
592
608
601
552
521
542
535
517
488
468
488
520
528
525
533
532
514
496
508
507
481
463
461
462
454
459
452
468
464
473
501
510
483
445
409
416
438
479
508
503
489
475
465
458
461
475
487
524
551
526
487
463
453
448
464
477
470
469
476
480
481
489
498
478
476
478
496
495
510
508
489
490
497
492
491
493
494
495
517
509
497
494
479
484
482
472
493
518
520
527
498
470
469
494
512
521
486
460
474
495
484
492
503
505
513
527
501
449
453
506
531
530
506
490
485
490
476
470
473
463
500
507
463
417
402
434
447
468
495
486
454
444
462
464
494
497
489
465
441
427
436
480
477
450
418
418
442
488
503
513
524
491
471
461
419
368
373
430
498
520
520
487
441
416
403
395
416
435
447
456
430
403
434
465
457
445
432
433
421
406
419
439
459
440
472
530
561
528
460
430
440
468
489
496
470
437
458
488
522
546
541
508
447
368
363
419
466
514
552
545
525
520
526
526
529
542
550
542
511
472
446
456
499
519
495
477
460
448
443
459
487
547
576
546
517
467
479
518
529
506
533
565
575
579
555
535
538
513
485
472
445
432
424
459
523
540
535
525
508
500
499
510
541
552
531
523
541
539
528
527
542
523
512
485
469
465
465
488
501
498
497
482
475
468
465
501
534
565
599
658
701
717
775
849
869
834
791
724
661
599
545
495
466
450
433
426
441
444
452
488
517
504
480
468
466
481
486
483
492
508
490
444
459
488
495
505
512
522
524
509
492
471
483
520
533
540
561
581
573
547
524
519
538
541
529
519
508
493
500
529
565
572
584
559
518
509
533
539
529
539
537
523
517
509
494
473
504
539
559
577
556
520
500
516
543
539
531
546
557
554
561
584
600
594
581
577
569
547
544
576
607
615
605
596
610
579
560
585
633
617
598
582
559
550
549
577
614
597
554
540
533
517
511
508
502
531
561
586
567
511
492
505
490
453
471
507
498
453
456
481
527
557
548
516
486
473
477
487
487
483
488
502
497
486
490
530
535
520
540
572
572
554
533
515
509
507
527
580
609
569
550
549
534
550
559
563
556
542
542
548
549
566
582
570
548
526
528
541
554
561
550
563
588
565
571
565
556
573
568
564
546
527
527
546
555
552
546
548
559
549
541
540
553
538
524
519
500
483
458
522
593
601
575
544
525
497
463
471
505
530
520
502
493
480
472
478
494
485
470
466
457
464
482
512
546
550
557
554
572
559
534
472
426
483
535
561
552
526
512
537
566
554
558
566
567
543
501
466
454
475
467
465
470
447
394
362
351
316
284
273
259
225
231
277
295
246
176
110
97
80
66
41
24
32
76
101
118
142
149
168
202
188
125
72
67
86
93
60
31
28
46
29
15
8
5
3
2
2
1
1
1
1
1
1
1
1
1
1
1
1
1
1
1
1
1
1
1
1
1
1
1
1
1
1
1
1
1
1
1
1
1
1
1
1
1
1
1
0
1
1
1
1
1
1
1
1
1
0
1
1
1
1
1
1
0
1
1
1
1
1
1
16
56
143
224
273
302
350
412
448
416
364
288
174
93
52
46
25
14
33
86
123
126
105
99
132
173
212
232
209
168
148
191
225
265
285
285
264
237
239
266
300
312
309
345
357
349
370
416
465
496
496
488
517
520
539
582
619
652
678
684
676
682
730
785
827
830
816
820
834
851
876
875
876
889
903
919
914
879
868
886
907
919
921
905
870
850
841
845
867
873
858
853
844
834
852
894
950
1008
1023
1023
981
932
919
912
938
984
1023
1023
1010
927
892
920
963
987
993
987
954
911
916
969
993
986
978
970
955
904
877
891
938
950
957
944
911
870
862
885
895
884
873
874
896
863
824
797
806
825
807
788
784
762
757
797
837
829
788
771
741
734
763
817
855
877
861
832
814
774
746
764
821
850
825
784
748
724
710
746
789
812
819
819
799
781
757
746
797
830
816
793
785
766
776
814
848
854
841
825
819
807
817
854
876
892
898
883
861
815
780
780
836
886
928
962
901
842
833
830
839
851
868
878
875
866
835
804
799
805
804
818
825
811
799
811
831
849
852
843
818
783
768
758
775
802
812
798
773
697
657
667
685
761
812
833
824
754
692
694
751
784
756
723
714
718
738
720
739
752
736
747
784
750
684
674
711
723
712
713
703
669
623
605
640
686
711
702
672
663
647
647
664
680
676
672
654
618
617
671
728
725
677
656
651
624
635
663
671
664
642
623
624
627
645
659
685
692
693
675
640
616
638
678
687
691
709
752
781
752
725
738
767
768
769
764
764
731
711
721
758
773
772
764
759
748
765
795
839
880
874
837
800
777
755
767
788
812
840
845
830
808
797
821
873
883
891
865
865
851
827
831
854
878
864
830
774
748
767
818
854
863
848
849
881
909
936
1004
1023
1023
1023
1023
1023
982
911
853
807
769
716
706
698
689
696
703
712
748
777
780
763
711
681
676
695
704
692
695
709
693
667
684
714
711
695
684
692
690
663
651
672
692
707
698
688
645
634
645
681
681
671
663
646
628
615
637
679
695
689
681
671
623
617
698
743
729
699
656
607
573
579
607
640
662
671
681
674
649
666
691
700
708
708
703
703
680
665
674
694
704
709
717
734
730
697
718
730
726
747
755
743
697
663
672
693
697
691
684
665
636
609
628
653
676
662
650
631
611
612
659
685
662
633
602
574
540
515
515
519
530
539
552
545
520
502
508
542
573
576
566
561
524
493
485
488
497
510
518
557
616
621
567
526
507
504
504
491
481
489
507
532
527
528
546
539
509
498
523
525
529
523
505
511
516
506
492
521
525
517
542
546
516
500
480
471
474
486
493
496
511
503
496
513
519
518
498
475
451
452
467
490
501
507
505
490
478
464
479
496
497
455
435
434
428
453
486
506
526
529
519
497
483
476
474
477
473
457
452
465
462
436
464
506
500
484
467
451
426
425
445
479
491
475
468
457
451
467
487
517
542
528
475
435
434
430
439
461
494
509
497
494
500
477
468
487
469
477
478
467
473
468
454
474
508
520
502
536
560
521
478
473
483
493
484
476
479
468
471
489
489
485
504
528
532
518
514
530
539
519
487
490
519
512
492
512
515
518
501
493
497
489
486
490
487
472
482
489
479
475
487
487
481
484
514
528
527
510
478
497
514
501
463
440
447
452
461
487
519
524
508
485
467
468
516
529
528
516
496
487
476
457
459
466
479
482
477
475
466
482
519
510
482
454
446
459
481
484
467
473
467
460
445
434
410
384
384
422
462
475
484
506
533
570
635
706
762
783
797
772
728
650
561
495
443
382
350
334
305
290
298
309
352
397
413
407
375
341
361
398
410
407
393
399
398
385
397
436
462
454
434
417
397
396
406
412
405
393
386
393
399
398
410
407
418
451
465
456
453
435
431
441
457
454
427
413
423
424
421
428
451
459
468
490
483
441
420
431
462
484
478
464
454
459
473
502
517
506
488
510
486
472
481
506
506
497
492
498
496
496
507
512
514
521
523
509
493
472
498
528
511
490
502
517
515
476
465
466
473
490
476
458
448
428
413
446
453
418
380
358
370
395
409
414
422
399
382
365
348
352
380
409
425
433
433
417
381
354
348
344
358
379
388
387
383
388
379
363
362
353
380
402
410
386
388
391
397
432
422
426
415
379
351
356
395
419
424
443
444
411
392
406
404
402
391
397
407
409
401
405
415
421
435
432
411
386
395
401
409
410
396
373
371
368
369
389
413
403
397
412
403
376
366
383
404
409
415
434
405
379
380
407
410
396
379
363
379
372
359
374
393
396
382
365
367
392
403
416
413
389
385
413
447
440
422
414
403
386
395
395
398
397
395
409
400
378
375
387
394
400
401
402
404
408
431
449
436
420
419
436
436
437
422
428
427
420
404
409
435
454
464
451
422
407
420
429
406
424
418
418
432
449
441
428
442
469
480
479
456
432
436
451
470
452
442
463
467
466
462
444
425
427
430
432
442
443
433
472
522
531
500
477
484
492
477
492
530
526
475
452
459
464
481
499
513
514
511
524
535
528
497
489
523
558
577
600
576
527
503
531
575
606
601
587
555
522
515
527
565
617
610
595
579
515
488
521
527
455
358
310
347
392
390
387
385
366
389
399
374
328
316
279
191
103
56
31
17
10
6
4
3
2
2
1
1
38
768
1023
957
493
261
140
76
51
735
1023
1023
1023
1023
1023
1023
1023
1023
1023
1023
1023
1023
1023
1023
1023
1023
1023
1023
707
730
1023
1023
1023
1023
1023
890
469
254
139
77
43
24
14
9
6
4
3
2
2
2
1
1
1
1
1
1
1
1
1
1
1
1
1
1
1
1
1
1
1
1
1
1
1
1
1
1
1
1
1
1
1
1
1
1
1
1
1
0
0
1
1
1
1
1
1
0
1
1
1
1
1
1
1
0
1
1
1
1
1
1
1
1
0
1
1
1
1
1
1
0
1
1
1
1
0
1
1
1
1
1
0
1
1
1
1
1
1
1
1
1
1
1
1
1
0
1
0
1
1
1
1
1
13
6
3
2
1
1
1
175
438
259
132
68
35
19
65
500
862
593
304
161
86
46
265
830
1023
942
485
257
138
114
520
1023
1023
1023
653
346
186
282
789
1023
1023
1023
818
432
252
491
1004
1023
1023
1023
998
523
378
694
1023
1023
1023
1023
1023
631
534
874
1023
1023
1023
1023
1023
813
718
1023
1023
1023
1023
1023
1023
978
884
1023
1023
1023
1023
1023
1023
1023
1023
1023
1023
1023
1023
1023
1023
1023
1023
1023
1023
1023
1023
1023
1023
1023
1023
1023
1023
1023
1023
1023
1023
1023
1023
1023
1023
1023
1023
1023
1023
1023
1023
1023
1023
1023
1023
1023
1023
1023
1023
1023
1023
1023
1023
1023
1023
1023
1023
1023
1023
1023
1023
1023
1023
1023
1023
1023
1023
1023
1023
1023
1023
1023
1023
1023
1023
1023
1023
1023
1023
1023
1023
1023
1023
1023
1023
1023
1023
1023
1023
1023
1023
1023
1023
1023
1023
1023
1023
1023
1023
1023
1023
1023
1023
1023
1023
1023
1023
1023
1023
1023
1023
1023
1023
1023
1023
1023
1023
1023
1023
1023
1023
1023
1023
1023
1023
1023
1023
1023
1023
1023
1023
1023
1023
1023
1023
1023
1023
1023
1023
1023
1023
1023
1023
1023
1023
1023
1023
1023
1023
1023
1023
1023
1023
1023
1023
1023
1023
1023
1023
1023
1023
1023
1023
1023
