0
0
1
1
1
0
1
1
0
1
0
0
1
0
0
0
1
0
1
0
0
1
0
0
1
0
0
1
0
0
1
0
1
0
0
0
1
0
0
1
1
1
0
0
0
1
1
0
0
1
0
1
1
1
0
1
0
1
1
1
1
1
0
1
1
1
0
1
1
1
1
1
1
1
1
1
1
1
0
0
0
0
1
1
0
1
1
1
1
0
1
1
0
1
0
1
1
0
1
0
1
1
0
1
1
1
1
1
1
1
1
1
1
1
1
0
1
1
1
1
1
1
1
1
1
0
1
0
1
0
1
0
0
1
1
0
1
0
0
1
0
1
1
1
1
1
1
1
0
1
0
0
1
1
1
1
1
1
1
1
0
1
1
1
0
0
0
0
1
1
1
1
0
0
1
55
516
507
298
175
105
63
38
23
14
292
872
1023
1014
612
360
215
130
79
49
490
989
1023
1023
907
533
316
190
115
72
596
1023
1023
1023
1023
615
365
218
133
90
652
1023
1023
1023
1023
688
408
243
148
113
700
1023
1023
1023
1023
739
438
262
158
130
725
1023
1023
1023
1023
766
454
271
164
144
745
1023
1023
1023
1023
783
464
277
167
149
750
1023
1023
1023
1023
769
456
272
164
142
742
1023
1023
1023
1023
747
443
265
160
137
736
1023
1023
1023
1023
731
433
259
157
127
721
1023
1023
1023
1023
693
411
245
149
91
56
35
22
14
9
6
4
3
2
2
2
1
1
1
1
1
1
1
1
1
1
1
1
1
1
1
1
1
1
1
1
1
1
1
1
1
1
1
1
1
1
1
1
1
1
1
1
1
1
1
1
1
1
1
1
1
1
1
1
1
0
1
1
1
1
1
1
1
1
0
1
1
1
1
1
1
1
1
0
1
1
1
1
1
0
1
1
1
1
1
1
1
0
1
1
1
1
1
1
1
1
1
1
1
1
1
1
1
0
1
1
1
1
1
1
0
1
1
1
380
922
1023
1023
1023
1023
1023
870
516
308
186
114
70
44
27
17
11
7
5
4
3
2
2
1
1
1
1
1
1
1
1
1
1
1
1
1
1
1
1
1
1
1
1
1
1
1
1
1
1
1
1
1
1
0
1
1
1
1
1
1
1
1
1
1
1
1
1
1
1
1
1
1
0
0
0
1
1
1
1
1
1
1
1
1
1
1
1
1
1
1
0
1
1
0
1
0
0
1
1
1
0
1
1
1
1
1
1
1
1
1
2
28
73
122
167
203
250
319
383
451
538
617
676
723
752
774
802
835
879
925
969
1011
1023
1023
1023
1023
1023
1023
1023
1023
1023
1023
1023
1023
1023
1023
1023
1023
1023
1023
1023
1023
1023
1023
1023
1023
1023
1023
1023
1023
1023
1023
1023
1023
1023
1023
1023
1023
1023
1023
1023
1023
1023
1023
1023
1023
1023
1023
1023
1023
1023
1023
1023
1023
1023
1023
1023
1023
1023
1023
1023
1023
1023
1023
1023
1023
1023
1023
1023
1023
1023
1023
1023
1023
1023
1023
1023
1023
1023
1023
1023
1023
1023
1023
1023
1023
1023
1023
1023
1023
1023
1023
1023
1023
1023
1023
1023
1023
1023
1023
1023
1023
1023
1023
1023
1023
1023
1023
1023
1023
1023
1023
1023
1023
1023
1023
1023
1023
1023
1023
1023
1023
1023
1023
1023
1023
1023
1023
1023
1023
1023
1023
1023
1023
1023
1023
1023
1023
1023
1023
1023
1023
1023
1023
1023
1023
1023
1023
1023
1023
1023
1023
1023
1023
1023
1023
1023
1023
1023
1023
1023
1023
1023
1023
1023
1023
1023
1023
1023
1023
1023
1023
1023
1023
1023
1023
1023
1023
1023
1023
1023
1023
1023
1023
1023
1023
1023
1023
1023
1023
1023
1023
1023
1023
1023
1023
1023
1023
1023
1023
1023
1023
1023
1023
1023
1023
1023
1023
1023
1023
1023
1023
1023
1023
1023
1023
1023
1023
1023
1023
1023
1023
1023
1023
1023
1023
1023
1023
1023
1023
1023
1023
1023
1023
1023
1023
1023
1023
1023
1007
985
946
926
924
930
967
1020
1023
1023
998
967
942
914
865
798
753
771
855
955
1010
1023
1023
1016
1000
988
972
978
993
953
894
867
841
778
707
688
710
764
846
912
925
895
869
862
862
824
783
758
755
789
844
887
923
946
956
981
1023
1023
974
865
765
702
689
696
689
656
609
592
614
660
711
717
686
634
577
535
509
513
555
616
694
744
746
712
672
640
622
621
629
619
597
569
537
508
502
509
516
543
578
585
586
594
596
590
579
575
546
514
493
485
500
536
569
571
548
522
510
515
515
529
542
547
549
567
628
696
694
594
489
454
442
407
358
329
327
357
408
461
497
512
491
460
441
440
471
510
521
516
511
510
522
519
499
478
459
445
448
484
550
580
568
571
586
572
528
471
431
428
464
494
496
501
494
487
489
470
422
392
408
444
483
519
532
511
501
531
582
619
587
498
412
367
377
429
460
453
446
457
481
527
572
579
540
490
461
454
463
481
476
457
459
488
521
544
554
562
552
516
491
505
543
570
590
594
574
545
526
518
540
587
627
628
570
492
429
395
411
454
500
538
575
610
627
613
577
549
533
532
561
584
577
583
591
585
602
622
621
611
608
631
675
708
699
665
608
543
498
503
545
587
607
615
615
628
637
636
646
668
688
695
692
677
652
622
592
587
606
637
657
666
673
684
700
698
675
631
603
602
614
620
629
647
657
671
703
712
674
601
542
502
493
531
584
635
691
748
807
866
941
1005
1014
985
961
938
902
845
781
720
659
610
597
611
617
600
548
489
458
454
463
489
522
543
538
504
477
497
529
544
545
542
551
562
560
542
508
495
514
544
553
520
466
437
443
458
451
435
440
462
487
509
524
520
515
508
514
539
570
577
540
503
509
526
523
532
548
554
529
502
501
532
573
624
656
621
543
473
453
475
506
529
539
537
527
522
535
545
557
581
596
590
580
566
547
538
535
519
513
550
626
698
718
713
720
723
705
660
613
573
561
587
632
674
687
672
666
677
685
680
704
749
780
785
755
721
684
660
650
623
571
527
536
593
638
655
649
636
633
658
719
778
801
757
704
677
653
621
593
576
560
554
560
560
565
591
630
650
646
604
541
492
472
451
425
414
414
427
466
493
516
557
571
561
542
510
492
471
456
460
482
506
521
546
569
593
598
568
537
509
476
462
438
408
390
383
395
417
442
464
477
494
516
530
528
544
559
551
538
525
533
570
624
654
645
627
607
576
542
501
491
519
539
550
553
539
531
529
531
531
522
517
531
560
595
622
634
637
632
631
628
632
649
667
689
706
693
665
623
602
632
687
723
707
660
621
609
608
614
621
626
621
609
614
625
646
636
595
554
553
617
687
714
706
686
673
657
638
622
613
626
679
759
813
810
792
780
753
702
668
662
650
626
590
575
581
568
553
563
581
600
635
675
710
727
731
709
661
627
618
626
648
693
730
743
759
763
730
685
667
679
692
709
693
655
611
596
627
671
676
643
615
609
618
636
659
677
673
655
637
615
597
588
605
645
674
680
651
620
626
676
713
704
660
637
645
640
618
597
569
557
585
622
648
665
678
672
667
669
675
671
674
712
748
754
723
657
592
560
557
568
569
570
572
586
615
643
659
664
668
664
633
592
575
577
580
587
602
638
675
692
703
714
704
671
628
599
574
557
559
578
604
622
637
646
633
614
602
591
576
569
589
625
671
715
744
721
662
617
605
596
604
615
624
620
614
603
597
609
623
633
646
646
634
610
572
531
522
542
565
575
574
583
591
593
598
603
601
602
633
675
685
656
636
653
704
740
741
714
675
643
603
561
534
533
552
569
588
622
665
678
660
624
588
559
550
545
556
590
634
676
723
753
740
692
650
634
633
621
603
589
589
595
610
644
688
692
644
598
576
574
597
632
660
679
686
687
663
618
589
581
590
605
609
614
616
604
593
593
613
642
652
645
634
618
600
592
597
594
605
621
628
610
593
605
632
650
650
644
615
574
548
535
532
538
545
541
528
539
541
530
518
510
518
541
575
629
705
781
830
872
916
953
968
978
981
957
915
860
796
734
683
632
575
548
538
530
535
562
570
526
475
478
522
577
609
613
616
620
629
628
618
615
605
587
566
563
584
608
635
651
649
646
646
646
653
641
615
597
597
616
634
658
675
668
638
617
605
592
591
602
618
678
750
770
734
698
684
690
676
660
664
671
670
658
637
623
623
629
626
627
615
594
599
628
651
677
703
705
672
630
603
583
574
576
585
599
618
636
649
644
618
590
580
572
556
549
569
576
575
593
609
606
594
582
568
547
530
558
625
679
699
694
649
601
581
570
569
561
555
577
626
678
684
641
607
599
607
632
658
680
683
684
702
727
714
690
674
659
645
649
659
659
654
657
662
663
643
616
599
617
625
611
592
572
566
582
600
606
592
578
579
589
588
581
572
573
570
563
582
630
683
692
664
604
536
488
469
477
480
492
519
541
552
550
542
538
544
562
572
546
508
516
549
573
557
523
525
556
583
601
610
614
621
622
597
576
579
601
633
657
667
648
611
597
618
641
644
633
622
630
646
657
647
621
603
619
649
662
662
645
629
611
608
650
696
720
720
706
705
715
721
696
660
635
617
606
627
659
674
666
646
642
647
637
621
615
605
596
592
591
597
589
563
530
501
477
460
469
484
492
496
512
524
540
557
568
578
591
596
569
528
522
544
554
546
555
582
603
618
623
618
598
575
579
597
590
577
584
598
609
619
621
612
603
594
597
603
611
615
624
645
649
639
619
605
598
609
643
682
704
703
694
675
653
639
647
666
680
689
677
655
654
667
673
664
652
643
633
643
654
646
627
620
630
641
651
647
639
626
616
626
651
660
655
647
631
625
620
617
635
669
710
752
770
754
719
674
643
626
638
651
662
660
661
676
693
704
705
729
747
721
688
688
704
719
736
750
744
730
726
722
709
700
721
768
811
799
776
773
785
800
795
768
735
709
688
678
682
692
694
679
663
656
665
688
692
685
711
751
784
795
798
787
785
797
797
784
748
699
662
653
683
737
791
822
802
764
734
730
745
771
784
776
745
707
675
678
704
742
779
795
794
787
779
758
730
725
726
730
732
721
689
660
666
680
693
716
735
759
775
765
750
747
743
730
703
696
715
729
752
777
791
782
762
746
744
730
697
673
669
679
696
711
716
719
724
735
725
701
684
703
736
768
784
775
749
727
723
740
741
711
670
633
623
639
666
696
721
737
732
716
698
687
700
710
700
687
674
663
663
699
741
784
826
827
793
744
706
688
687
692
695
698
691
673
654
633
628
645
664
654
623
612
626
644
649
642
636
640
654
657
653
651
662
670
682
701
740
805
854
889
923
958
998
1023
1023
1021
1007
964
896
809
712
640
593
567
551
555
572
599
635
651
630
596
563
535
519
517
526
546
572
605
619
630
636
605
544
493
504
560
595
595
583
574
584
589
575
581
594
610
637
649
646
623
579
544
536
553
571
575
564
552
536
543
580
618
651
669
648
599
558
553
569
562
544
551
563
560
551
556
591
629
655
654
641
633
622
624
623
617
629
636
642
641
626
594
553
529
532
555
580
607
602
592
608
636
654
661
655
649
632
632
643
654
664
672
679
686
692
699
700
696
675
650
649
658
668
690
714
731
710
672
648
659
675
693
713
720
697
664
644
631
630
649
672
678
674
683
706
713
700
688
690
701
719
727
702
694
700
704
703
697
701
711
699
659
616
600
603
624
625
608
589
591
590
574
548
540
530
517
510
527
549
567
585
585
589
594
598
575
523
487
475
489
507
531
548
560
562
552
544
555
566
580
582
566
540
493
449
443
476
531
563
570
567
555
554
571
591
601
599
594
580
555
564
606
605
572
563
561
561
559
553
544
546
559
582
594
586
575
559
537
520
510
505
513
506
487
508
551
596
642
667
666
650
625
606
595
581
582
584
575
559
557
559
563
569
574
577
589
614
623
602
581
570
557
542
525
527
546
578
600
617
626
624
630
628
628
625
614
605
612
619
621
605
587
578
593
618
635
626
604
569
538
534
534
524
522
527
536
544
563
565
548
538
526
513
520
535
557
569
568
565
554
519
484
491
530
572
600
619
635
624
589
543
507
507
518
526
545
571
612
620
594
571
550
534
530
525
515
516
530
539
532
528
514
501
500
534
570
580
580
582
590
601
597
549
503
475
461
466
488
516
541
552
541
538
534
533
543
566
588
591
570
541
503
460
447
475
513
549
566
553
531
534
544
549
572
588
578
555
531
517
521
532
530
530
535
532
513
514
526
537
525
494
485
501
538
553
548
554
570
575
572
562
544
529
515
514
523
533
546
559
565
563
549
533
523
526
537
564
582
573
550
527
519
505
509
526
535
548
544
533
540
539
527
519
529
541
535
521
528
558
580
572
537
509
520
539
545
548
545
542
544
544
551
548
549
552
545
524
518
514
501
495
490
484
497
530
562
565
566
579
576
536
470
431
447
513
578
611
635
628
606
581
560
534
499
485
490
494
518
546
551
539
522
518
529
518
510
524
536
540
543
547
550
555
555
551
539
530
527
540
556
560
557
560
583
604
601
584
563
550
557
576
584
589
593
584
544
497
481
488
478
442
432
459
488
509
521
524
509
495
495
508
526
534
546
582
612
612
603
589
554
521
527
571
636
720
796
860
910
941
933
886
846
834
806
772
724
648
559
477
429
410
401
414
441
466
478
480
488
483
455
438
436
440
439
441
447
463
477
488
483
476
459
434
441
475
504
527
549
537
504
481
466
458
466
491
513
526
521
500
474
467
494
519
518
506
496
501
513
524
523
523
534
543
555
559
568
560
553
553
539
516
490
458
441
454
492
515
535
546
548
557
563
553
543
550
561
560
545
534
501
447
429
455
488
523
558
595
623
629
592
546
522
537
567
594
598
587
586
581
571
566
573
588
589
603
623
638
647
658
644
607
568
557
562
553
548
583
646
690
703
689
651
612
591
581
593
613
618
609
599
593
585
580
584
585
597
633
650
637
608
591
597
600
631
672
670
645
612
577
544
522
510
507
504
508
522
544
548
526
484
431
385
365
365
373
394
418
444
468
486
487
474
446
441
454
453
433
402
391
392
402
419
429
436
448
467
496
501
481
451
425
409
401
394
390
388
379
376
395
441
463
464
461
466
478
482
473
469
455
442
452
479
487
479
476
478
476
481
476
457
459
460
458
460
488
515
509
485
459
463
481
492
502
513
537
555
564
560
556
543
538
532
520
515
522
534
539
531
519
516
527
518
482
445
453
495
537
572
585
569
539
513
485
482
519
554
574
565
537
508
503
511
520
524
548
587
601
581
544
512
488
484
491
507
538
563
556
530
500
468
460
474
480
471
467
463
465
488
518
541
561
571
578
588
583
571
559
522
478
450
449
455
461
468
475
467
472
522
557
561
558
539
523
522
524
523
516
488
470
479
488
488
493
498
508
530
554
556
535
521
515
517
522
537
546
532
508
494
505
521
535
530
508
495
497
487
478
478
487
518
544
552
553
575
606
624
626
599
568
557
534
497
475
483
508
539
559
561
560
567
569
562
551
535
508
498
520
540
544
537
517
465
409
397
406
424
460
487
489
489
507
529
554
564
557
529
482
468
487
513
536
553
564
562
554
548
548
558
570
571
543
516
485
451
411
380
396
439
468
472
461
448
449
483
526
553
570
590
604
604
616
625
620
619
622
634
647
664
681
696
680
643
625
631
647
661
667
664
639
606
599
616
643
666
667
656
652
654
665
669
672
676
685
702
711
708
696
671
651
655
647
630
628
644
667
669
650
616
593
598
614
617
610
604
597
589
579
564
558
551
560
569
577
612
660
671
663
635
595
566
567
582
590
608
630
632
620
596
568
574
595
616
628
618
583
550
533
526
521
505
481
452
436
451
485
530
551
546
539
546
553
545
535
530
532
525
520
513
510
501
476
464
486
508
532
580
643
680
716
774
847
900
919
906
876
827
775
716
650
587
538
492
439
408
386
364
347
329
289
286
333
366
392
410
418
426
433
433
440
451
460
465
444
419
409
413
440
456
463
464
461
458
456
463
479
481
487
484
463
427
411
425
440
456
474
480
494
508
504
496
489
482
486
517
533
523
498
468
428
396
380
378
392
412
437
460
468
464
462
478
502
507
486
459
459
488
528
556
568
567
545
525
493
472
481
516
560
574
557
528
493
463
442
446
480
515
531
533
526
506
498
493
500
518
541
550
577
598
587
564
541
519
519
536
561
580
587
587
588
599
612
606
598
605
620
628
639
631
610
575
545
536
546
561
574
571
555
545
542
527
525
556
577
578
581
567
541
525
505
489
468
466
476
485
497
496
488
476
465
465
464
461
453
443
424
421
429
426
417
401
389
380
352
344
360
390
414
434
446
438
427
420
403
371
359
404
449
475
491
492
491
479
455
432
418
408
404
408
418
419
410
410
418
415
425
452
466
450
412
375
373
385
397
426
463
484
469
442
442
476
504
517
521
522
540
545
524
499
493
501
498
493
481
462
448
454
474
481
473
466
482
488
473
460
477
517
536
544
542
499
434
406
440
514
577
604
609
607
604
606
586
531
472
451
467
476
464
455
466
499
533
552
543
527
520
518
509
505
496
490
486
486
487
491
510
516
512
482
446
448
475
510
547
562
557
543
516
485
477
482
467
444
439
431
434
460
496
519
529
517
500
502
500
494
504
510
507
512
517
524
540
536
503
474
471
488
496
489
485
480
466
465
478
499
503
490
496
522
535
529
505
472
449
454
495
538
556
544
518
476
440
423
440
467
479
483
508
537
546
563
573
554
532
525
531
548
558
552
515
481
459
439
431
440
456
468
466
440
447
485
511
521
518
507
486
461
443
438
448
469
487
496
490
486
507
548
586
612
588
545
514
504
514
531
549
564
563
538
478
434
439
460
476
502
523
541
562
559
547
522
494
491
493
489
502
514
511
509
503
490
485
488
516
575
627
629
594
553
524
512
512
491
468
481
488
477
462
450
465
515
562
573
578
596
616
616
601
564
534
509
492
494
515
541
564
562
542
518
509
536
581
600
580
560
554
538
535
535
533
529
522
513
507
497
468
454
477
483
486
496
516
538
556
564
560
557
568
568
562
559
546
520
499
496
506
522
514
501
504
522
541
539
529
519
522
519
518
520
533
548
562
558
542
518
508
510
513
521
521
513
512
512
489
443
414
393
411
455
500
519
504
472
457
463
480
480
461
428
424
456
492
528
549
557
570
577
568
543
542
588
683
783
859
907
917
891
871
832
763
673
586
494
402
332
300
315
348
372
395
420
418
408
415
432
436
433
431
421
412
422
439
450
456
464
471
464
447
442
449
462
481
497
496
499
499
472
436
397
372
381
408
435
463
466
457
460
472
477
479
481
483
481
465
462
482
517
533
533
536
518
483
457
456
473
506
533
548
543
520
495
491
509
529
528
516
506
513
521
520
502
495
504
532
564
581
584
583
582
570
556
545
537
537
528
520
528
557
579
590
598
589
578
566
547
533
538
545
541
534
534
548
554
568
574
581
589
611
634
652
661
664
659
655
668
684
683
659
624
590
563
559
583
596
593
602
610
591
564
567
606
623
588
537
514
524
559
585
580
569
542
520
500
480
474
480
475
454
430
409
416
443
458
464
478
473
458
429
394
387
397
394
378
372
370
366
348
326
319
341
385
415
426
435
432
432
440
429
396
372
352
336
342
359
375
386
398
400
377
369
386
410
421
424
422
415
418
430
429
420
414
409
401
396
385
354
334
350
387
419
439
462
500
525
530
514
493
481
465
446
427
411
392
394
419
431
443
458
472
482
455
438
472
515
528
529
530
523
501
480
466
451
450
454
459
456
454
436
426
442
478
502
510
516
527
541
541
515
492
479
481
483
458
459
497
534
556
573
580
565
544
531
521
514
523
543
558
564
529
485
461
474
496
500
496
497
502
512
525
525
524
522
523
535
556
568
568
547
526
496
480
484
496
523
541
551
562
568
569
551
519
500
531
588
610
594
570
557
557
554
549
555
565
568
573
584
595
604
604
566
516
489
494
516
541
552
559
567
569
559
541
513
497
493
505
536
569
577
557
549
545
541
532
534
541
543
549
549
554
563
583
590
592
587
580
598
611
612
607
598
582
568
560
564
578
587
586
581
577
564
544
524
518
518
514
514
534
557
562
562
562
547
514
493
501
531
564
587
591
588
585
595
604
592
567
554
558
562
563
561
565
562
551
543
556
582
586
580
580
568
538
522
525
545
572
580
565
552
537
526
515
518
518
506
510
532
538
548
563
582
583
572
567
565
547
513
504
531
544
552
558
541
516
509
520
518
499
493
502
514
513
509
509
529
563
578
562
545
542
559
550
533
544
558
562
573
582
588
580
575
558
526
488
476
485
515
544
544
516
479
444
447
485
507
516
528
535
549
548
539
521
510
510
528
538
510
487
483
502
544
562
540
516
500
487
470
456
480
538
583
586
568
558
564
576
583
568
548
530
512
503
488
464
446
465
516
572
633
704
756
798
831
852
868
876
862
803
724
667
639
613
559
503
462
434
425
414
413
431
450
460
483
508
514
508
481
462
467
464
470
485
487
460
429
424
444
472
477
470
480
494
496
504
522
534
529
508
481
462
464
478
479
485
478
469
465
482
505
506
498
497
518
548
576
583
570
553
537
530
533
536
538
542
544
539
529
529
533
528
532
545
545
536
523
502
504
536
566
573
564
554
555
570
579
560
539
532
542
551
538
522
518
519
534
560
587
608
616
612
601
590
599
615
617
611
596
597
604
610
620
622
605
560
521
514
560
634
687
705
696
685
675
666
662
647
635
627
625
616
597
583
588
589
568
556
564
593
630
649
644
613
582
566
562
582
608
615
608
586
562
555
563
550
526
503
486
495
513
513
507
493
483
476
465
456
461
477
487
485
471
431
369
316
302
333
372
403
416
418
417
414
408
396
406
420
423
428
439
443
439
436
423
411
412
432
454
462
450
435
443
462
483
482
420
363
375
433
476
479
473
469
465
470
481
489
481
468
456
447
451
449
448
443
445
464
485
491
490
485
487
500
499
498
509
499
470
445
443
470
505
525
528
519
512
512
522
524
508
506
531
538
523
500
486
493
500
510
543
568
573
556
521
487
472
484
485
464
456
464
488
519
531
535
544
560
550
541
541
523
498
480
469
458
460
488
542
567
553
527
505
499
491
477
476
490
510
536
545
525
504
517
538
532
516
499
486
494
513
523
533
544
537
535
538
534
529
524
525
530
530
520
515
515
509
534
570
583
560
520
496
508
533
557
564
571
570
547
525
514
504
509
514
515
528
551
553
543
540
541
540
539
543
544
545
539
534
545
551
545
535
513
496
514
549
568
548
525
525
534
541
556
568
568
555
530
510
505
507
517
539
563
566
536
506
504
520
541
552
550
542
542
554
558
544
525
526
537
532
530
553
585
593
573
552
546
533
519
514
532
553
569
561
550
549
555
548
551
544
530
513
505
517
551
561
571
579
557
522
490
477
494
546
597
614
595
573
581
600
599
582
552
514
489
504
530
554
561
546
513
506
527
555
567
571
571
560
557
540
515
505
504
510
522
537
562
564
568
583
596
578
538
521
541
569
567
556
564
588
596
586
556
524
526
542
555
553
540
513
510
536
559
580
591
599
600
584
564
556
560
566
566
563
555
547
559
581
603
609
575
537
528
517
502
487
471
474
471
471
464
469
505
564
614
653
681
716
757
819
900
955
970
944
903
855
794
739
680
620
580
556
530
500
474
454
438
421
426
447
456
440
429
433
439
446
458
472
469
476
483
471
445
435
447
470
499
515
520
515
494
471
451
447
452
476
501
519
527
522
519
505
486
476
491
514
524
520
519
507
476
456
461
468
468
476
507
521
515
523
524
516
517
510
501
496
480
465
438
398
394
424
462
499
535
566
588
569
512
475
486
515
542
575
600
611
597
580
557
530
518
521
525
515
514
518
510
501
492
496
507
519
547
581
605
628
643
659
669
651
629
608
587
587
590
586
592
601
584
570
562
558
560
582
615
628
615
601
587
588
599
611
609
605
598
584
587
597
609
607
594
582
576
564
539
509
498
504
509
507
503
504
507
517
538
542
546
538
496
454
423
399
392
397
408
428
455
462
436
399
381
393
405
415
432
452
447
437
428
400
364
333
305
285
302
356
407
451
490
499
491
468
440
419
433
468
528
607
630
550
413
296
263
304
386
447
451
431
407
393
361
342
372
425
430
381
370
393
405
411
410
401
357
319
339
413
484
519
483
420
352
312
312
336
352
341
317
307
300
277
216
132
81
50
31
20
13
8
6
4
3
2
162
775
1023
1023
1023
1023
1023
1023
1023
1023
1023
1023
1023
1023
1023
1023
1023
1023
1023
1023
1023
1023
1023
1023
1023
1023
1023
1023
1023
1023
1023
1023
1023
1023
1023
1023
1023
1023
1023
1023
1023
1023
1023
1023
1023
1023
1023
1023
1023
1023
1023
1023
1023
1023
1023
1023
1023
1023
1023
1023
1023
1023
1023
1023
1023
1023
1023
1023
1023
1023
1023
1023
1023
1023
1023
1023
1023
1023
1023
1023
1023
1023
1023
1023
1023
1023
1023
1023
1023
1023
1023
1023
1023
1023
1023
1023
1023
1023
1023
1023
1023
1023
1023
1023
1023
1023
1023
1023
1023
1023
1023
1023
1023
1023
1023
1023
1023
1023
1023
1023
1023
1023
1023
1023
1023
1023
1023
1023
1023
1023
1023
1023
1023
1023
1023
1023
1023
1023
1023
1023
1023
1023
1023
1023
1023
1023
1023
1023
1023
1023
1023
1023
1023
1023
1023
1023
1023
1023
1023
1023
1023
1023
1023
1023
1023
1023
1023
1023
1023
1023
1023
1023
1023
1023
1023
1023
1023
1023
1023
1023
1023
1023
1023
1023
1023
1023
1023
1023
1023
1023
1023
1023
1023
1023
1023
1023
1023
1023
1023
1023
1023
1023
1023
1023
1023
1023
1004
1023
1023
1023
1023
954
567
340
205
126
78
373
923
1023
1023
823
485
288
173
106
65
365
919
1023
1023
824
485
288
173
106
65
375
925
1023
1023
831
489
290
174
106
66
383
929
1023
1023
833
490
290
175
107
66
390
933
1023
1023
836
492
292
175
107
66
398
938
1023
1023
839
494
293
176
107
66
405
942
1023
1023
841
495
293
176
108
66
412
946
1023
1023
845
497
295
177
108
66
422
952
1023
1023
853
501
297
178
109
67
431
957
1023
1023
860
506
300
180
110
67
439
961
1023
1023
864
508
301
181
110
68
436
960
1023
1023
804
473
281
169
103
63
39
25
16
10
7
5
4
3
2
2
2
1
1
1
1
1
1
1
1
1
1
1
1
1
1
1
1
1
1
1
1
1
1
1
1
1
1
1
1
1
1
1
1
1
1
1
1
