514
896
862
915
934
671
346
181
242
532
781
932
950
679
350
183
251
548
799
946
953
671
345
180
253
559
812
957
961
665
340
178
244
548
798
939
937
634
325
170
226
526
777
920
920
612
314
164
211
509
761
905
902
586
301
157
178
469
729
881
877
550
283
148
130
397
672
844
844
510
263
137
86
299
582
774
779
452
233
122
65
187
467
679
696
389
200
104
56
106
368
599
628
342
176
92
49
73
321
563
599
322
166
86
46
59
297
546
586
313
161
84
45
60
306
560
602
323
166
86
46
65
317
574
616
330
170
89
47
67
318
571
606
323
166
87
46
55
287
527
551
289
148
78
41
32
213
430
441
224
115
60
32
18
101
278
277
139
71
37
20
11
42
190
196
98
50
26
14
8
57
225
239
119
61
32
17
9
92
281
294
147
75
39
21
11
79
249
244
122
63
32
17
10
7
73
60
30
15
8
5
3
32
204
251
125
64
33
17
76
363
629
663
357
184
96
51
137
439
702
739
412
212
111
59
194
498
731
735
406
209
110
58
155
416
629
655
374
192
100
90
359
665
872
900
618
318
192
370
652
836
897
820
579
356
371
610
867
1012
1023
980
789
619
621
757
861
852
761
601
363
190
115
154
190
153
84
45
25
14
8
6
26
20
10
6
3
2
2
28
79
70
36
18
10
5
6
81
142
125
68
35
18
10
89
228
290
256
179
97
51
103
260
401
433
370
274
182
156
258
441
574
575
477
352
247
226
350
539
653
625
506
372
262
250
386
581
691
652
524
385
279
282
435
643
754
711
575
425
309
309
468
678
786
736
598
449
339
352
525
741
842
781
633
478
366
384
566
788
891
826
675
518
407
432
621
845
944
876
723
568
461
497
700
930
1023
943
782
619
511
551
757
986
1023
1001
844
691
591
638
851
1023
1023
1023
961
818
734
803
1023
1023
1023
1023
1023
989
888
942
1023
1023
1023
1023
1023
959
824
834
999
1023
1023
1023
824
633
505
534
730
943
1013
918
755
600
503
556
765
987
1023
986
832
685
592
644
849
1023
1023
1023
918
773
684
739
948
1023
1023
1023
1023
885
801
862
1023
1023
1023
1023
1023
1023
955
1023
1023
1023
1023
1023
1023
1023
1023
1023
1023
1023
1023
1023
1023
1023
1023
1023
1023
1023
1023
1023
1023
1023
1023
1023
1023
1023
1023
1023
1023
1023
1023
1023
1023
1023
1023
1023
1023
1023
1023
1023
1023
1023
1023
1023
1023
1023
1023
1023
1023
1023
1023
1023
1023
1023
1023
1023
1023
1023
1023
1023
1023
1023
1023
1023
1023
1023
1023
1023
1023
1023
1023
1023
1023
1023
1023
1023
1023
1023
1023
1023
1023
1023
1023
1023
1023
1023
1023
1023
1023
1023
1023
1023
1023
1023
1023
1023
1023
1023
1023
1023
1023
1023
1023
1023
1023
1023
1023
1023
1023
1023
1023
1023
1023
1023
1023
1023
1023
1023
1023
1023
1023
1023
1023
1023
1023
1023
1023
968
915
991
1023
1023
1023
1023
982
849
797
873
992
1023
1019
960
860
740
704
791
911
961
937
879
788
688
676
777
899
946
925
875
796
715
724
836
962
1011
991
942
865
787
797
909
1023
1023
1023
991
906
826
837
944
1023
1023
1023
983
895
819
837
944
1023
1023
1023
956
865
790
809
914
1010
1023
977
903
810
735
752
853
943
951
897
820
726
656
679
781
868
873
818
742
655
596
630
736
817
815
754
673
585
535
580
687
755
736
661
570
482
445
508
617
672
632
540
435
348
332
425
543
581
515
397
276
188
198
321
443
458
362
222
116
63
62
193
323
332
224
115
60
32
22
135
269
273
160
82
43
23
14
119
262
267
155
79
41
22
28
192
358
352
210
107
56
29
38
222
416
413
252
129
67
35
132
417
651
614
385
198
103
55
225
496
777
751
486
251
131
79
373
518
878
932
654
344
180
124
542
1023
1023
1023
644
336
178
95
433
1023
1023
896
460
242
129
69
518
1023
1023
956
490
258
137
74
593
1023
1023
1023
1023
817
427
293
945
1023
1023
1023
810
422
224
203
905
1023
1023
1023
762
398
211
208
912
1023
1023
1023
750
392
208
209
913
1023
1023
1023
736
385
205
206
911
1023
1023
1023
728
381
202
205
911
1023
1023
1023
732
382
203
109
736
983
502
261
138
74
41
23
13
8
5
4
3
2
2
1
1
1
1
1
1
1
1
1
1
1
1
1
1
1
1
1
1
1
1
1
1
1
1
1
1
1
1
1
1
1
1
1
1
1
1
1
1
1
1
1
1
1
1
1
1
1
1
1
1
1
1
1
1
1
1
1
1
1
1
1
1
1
1
183
897
1023
1023
1023
1023
1023
1023
1023
1023
1023
1023
1023
1023
1023
1023
1023
1023
1023
1023
1023
1023
1023
1023
1023
1023
1023
1023
1023
1023
1023
1023
1023
1023
1023
1023
1023
1023
1023
1023
1023
1023
1023
1023
1023
1023
1023
1023
1023
1023
1023
1023
1023
1023
1023
1023
1023
1023
1023
1023
1023
1023
1023
1023
1023
1023
1023
1023
1023
1023
1023
1023
1023
1023
1023
1023
1023
1023
1023
1023
1023
1023
1023
1023
1023
1023
1023
1023
1023
1023
1023
1023
1023
1023
1023
1023
1023
1023
1023
1023
1023
1023
1023
1023
1023
1023
1023
1023
1023
1023
1023
1023
1023
1023
1023
1023
1023
1023
1023
1023
1023
1023
1023
1023
1023
1023
1023
1023
1023
1023
1023
1023
1023
1023
1023
1023
1023
1023
1023
1023
1023
1023
1023
1023
1023
1023
1023
1023
1023
1023
1023
1023
1023
1023
1023
1023
1023
1023
1023
1023
1023
1023
1023
1023
1023
1023
1023
1023
1023
1023
1023
1023
1023
1023
1023
1023
977
765
619
526
417
265
142
77
43
24
14
9
6
4
3
2
2
2
1
1
1
1
1
91
344
668
1023
1023
1023
1023
1023
1023
1023
1023
1023
1023
1023
1023
1023
1023
1023
1023
1023
1023
1023
1023
1023
1023
1023
1023
1023
1023
1023
1023
1023
1023
1023
1023
1023
1023
1023
1023
1023
1023
1023
1023
1023
1023
1023
1023
1023
1023
1023
1023
1023
1023
1023
1023
1023
1023
1023
1023
1023
1023
1023
1023
1023
1023
1023
1023
695
375
201
109
60
33
19
11
7
5
3
2
2
2
2
1
1
1
1
1
1
1
1
1
1
1
1
1
1
1
1
1
1
1
1
1
1
1
1
1
1
1
1
1
1
1
1
1
1
1
1
312
970
1023
1023
1023
1023
1023
1023
1023
1023
1023
1023
1023
1023
1023
1023
1023
1023
1023
1023
1023
1023
1023
1023
1023
1023
1023
1023
1023
1023
1023
1023
1023
1023
1023
1023
1023
1023
1023
1023
1023
1023
1023
1023
1023
768
406
218
118
64
36
20
12
8
5
3
3
2
2
1
1
1
1
1
1
1
1
1
1
1
1
1
1
1
1
1
1
1
1
1
1
1
1
1
1
1
1
1
1
1
1
1
1
1
1
1
1
1
1
1
1
1
1
1
1
1
1
1
47
196
380
560
750
948
1023
1023
1023
1023
1023
1023
1023
1023
1023
1023
1023
1023
1023
1023
1023
1023
1023
1023
1023
1023
1023
1023
1023
1023
1023
1023
1023
1023
1023
1023
1023
1023
1023
1023
1023
1023
1023
1023
1023
1023
1023
1023
1023
1023
1023
1023
1023
1023
1023
1023
982
901
850
812
768
695
588
475
363
258
171
95
52
29
17
10
6
4
3
2
2
2
1
1
1
1
1
1
1
1
1
1
1
1
1
1
1
1
1
1
1
1
1
1
1
1
1
1
1
1
1
1
1
1
1
1
1
1
1
1
1
1
1
1
1
1
1
1
1
1
1
1
1
1
1
1
1
1
1
1
1
1
1
1
1
1
1
1
1
1
1
1
1
1
1
1
1
1
1
1
1
1
1
1
1
0
1
1
1
1
1
1
1
1
1
1
1
1
1
1
1
1
1
1
1
1
1
1
1
1
1
1
1
1
1
1
1
1
1
1
1
1
1
1
1
1
1
1
1
1
1
1
1
1
1
1
1
1
1
1
1
1
1
1
1
1
1
1
1
1
1
1
1
1
1
1
1
1
1
1
1
1
1
1
1
1
1
1
1
1
1
0
1
1
1
1
0
1
1
1
1
1
1
1
1
1
1
1
1
1
1
1
1
1
1
1
1
1
1
1
1
1
1
1
1
1
1
1
1
1
1
1
1
1
1
1
1
1
1
1
1
1
1
1
0
1
1
1
0
1
1
1
1
1
1
1
1
1
1
1
1
1
1
1
1
1
1
1
1
1
1
1
1
1
1
1
0
1
1
1
1
1
0
1
1
1
1
1
1
1
1
1
1
1
1
1
0
1
1
1
1
1
1
1
1
1
1
1
1
1
1
1
1
1
13
17
14
9
5
3
2
17
47
69
96
86
66
48
48
84
113
100
82
73
62
41
42
60
65
72
82
75
54
27
25
44
80
105
84
75
82
84
114
190
277
340
410
460
451
420
384
345
308
259
218
169
132
103
93
105
125
152
166
179
174
156
160
188
202
221
221
205
198
202
211
229
253
263
253
256
255
237
220
243
269
273
282
293
291
276
284
302
313
299
292
284
291
266
255
275
285
277
269
267
272
252
237
251
276
304
284
272
257
233
236
264
290
296
293
298
289
245
222
246
286
309
331
343
329
287
268
280
309
326
349
370
382
390
384
402
414
407
396
396
402
387
379
419
466
459
453
464
427
363
322
329
345
358
355
339
337
313
285
293
303
296
293
293
260
233
239
248
247
245
254
248
253
253
255
254
260
270
256
239
229
212
211
214
218
220
216
221
242
240
246
259
265
268
263
254
257
253
260
293
313
308
293
282
286
270
257
270
302
325
317
314
314
311
321
350
387
398
385
373
361
326
309
311
321
320
316
327
346
350
357
375
391
373
348
341
336
333
336
362
393
385
364
356
337
329
324
332
341
348
352
344
336
335
345
368
395
406
401
385
363
338
358
389
407
408
413
406
389
366
336
356
431
508
555
563
534
524
539
556
557
560
565
568
555
557
575
589
599
599
589
570
546
523
513
533
563
586
599
591
571
539
541
567
586
592
577
560
544
533
533
547
557
555
552
534
497
482
489
523
557
556
544
534
499
466
471
477
462
438
427
433
441
458
470
478
492
506
490
467
451
425
411
444
493
505
502
507
494
467
459
472
476
474
472
470
451
440
442
444
458
453
446
440
424
397
397
427
444
447
457
462
475
452
436
444
452
450
436
453
461
429
421
439
464
471
466
463
447
432
432
458
482
483
463
451
447
430
435
441
449
464
465
449
422
422
438
456
455
442
455
467
460
444
428
434
449
457
467
464
423
395
388
400
418
423
419
411
388
345
341
383
411
410
414
419
438
461
488
540
628
682
724
759
752
719
678
626
551
458
374
320
277
227
204
219
248
281
322
348
338
331
341
363
378
368
354
350
356
353
343
350
373
386
393
383
356
320
308
332
343
371
401
410
406
396
396
412
427
411
400
417
416
396
386
414
443
458
456
439
404
402
422
448
442
423
440
437
428
409
394
415
444
455
447
438
432
432
435
464
492
502
496
487
465
446
432
472
504
497
490
509
474
436
448
480
501
512
514
529
535
527
529
534
545
557
547
528
512
511
534
551
549
560
577
562
532
495
468
448
453
456
452
448
417
397
398
417
425
412
395
382
349
318
325
345
354
363
359
337
318
315
328
338
346
337
341
344
307
287
274
294
328
345
344
342
330
334
349
363
369
355
359
359
338
332
363
397
418
427
428
430
419
397
392
413
442
447
438
423
407
396
412
437
445
441
430
419
406
404
404
420
432
434
431
429
414
419
440
451
455
457
471
486
477
456
451
457
459
456
469
483
467
450
443
472
510
536
521
505
473
453
459
477
504
519
522
516
487
468
477
492
517
514
492
485
480
463
466
502
499
489
491
491
482
463
486
525
552
564
557
529
499
508
557
561
551
557
545
535
541
551
563
584
594
584
611
615
570
545
543
551
566
591
605
605
587
573
585
630
646
652
657
651
625
604
605
624
634
651
626
614
615
591
587
604
608
604
608
624
620
603
595
580
574
573
583
585
560
544
566
598
608
603
599
586
565
555
554
567
570
565
579
581
574
566
559
566
582
597
592
577
568
574
589
604
610
613
617
602
574
551
552
556
564
577
591
582
565
560
581
622
633
628
631
635
635
609
597
612
623
632
648
641
625
621
624
627
639
662
665
651
633
637
651
672
663
661
664
646
624
630
604
571
580
607
593
574
559
552
577
610
620
619
612
597
583
596
638
694
751
812
879
916
911
867
837
797
730
650
578
524
473
447
446
448
456
479
501
488
470
462
466
496
535
531
523
521
532
533
533
547
550
556
567
559
529
535
561
574
583
586
592
576
534
516
548
585
574
564
538
522
515
526
551
571
576
571
568
564
555
555
560
563
583
595
590
578
573
591
591
607
623
626
624
608
593
586
587
595
603
618
633
639
627
637
649
664
664
651
639
620
607
612
637
664
662
662
666
652
662
670
676
683
672
659
662
666
627
571
550
595
652
666
642
623
611
615
630
638
622
621
627
615
586
564
551
558
574
565
547
537
535
534
535
539
537
534
514
497
488
481
494
515
539
547
568
560
534
505
509
546
558
566
554
561
559
548
553
570
577
574
574
573
559
555
566
577
590
584
573
568
556
553
549
570
597
616
606
586
592
593
601
620
615
601
592
576
562
560
578
600
608
611
624
619
590
579
600
625
626
594
585
606
615
603
614
626
629
632
609
601
598
601
617
618
620
632
665
680
615
560
569
616
648
662
658
647
636
624
637
658
668
659
639
620
585
567
580
585
586
597
613
608
592
590
609
623
613
603
597
575
560
569
592
605
603
608
601
579
545
527
543
572
600
597
591
554
520
519
534
542
544
556
568
574
561
547
554
579
591
595
591
572
578
587
599
600
590
578
571
554
557
559
572
594
588
609
643
633
597
579
576
595
599
582
595
598
577
584
593
604
611
616
627
607
580
571
588
586
579
579
593
598
581
558
547
549
566
585
611
609
601
589
570
565
565
562
570
567
544
549
587
604
597
600
592
582
573
577
584
576
560
559
552
562
553
551
567
584
580
581
562
525
491
496
508
514
553
582
576
557
537
518
526
542
553
556
559
550
530
516
519
555
576
577
563
548
548
552
553
557
557
547
524
505
491
490
505
520
510
494
488
479
459
461
464
486
509
505
507
506
512
575
669
759
836
885
898
869
800
717
630
560
505
466
440
408
370
369
393
420
431
438
442
433
429
452
476
488
469
459
469
477
478
473
478
480
478
487
493
476
469
479
489
481
474
483
502
500
475
463
476
485
485
484
510
502
476
487
512
536
522
510
517
517
508
507
523
528
522
514
537
545
528
511
523
553
562
568
555
542
548
552
580
609
608
597
587
605
592
579
592
598
599
608
610
598
577
571
594
626
647
662
648
646
644
636
627
637
627
624
638
642
629
620
613
608
607
615
623
621
606
582
584
599
603
569
539
524
506
520
527
510
512
535
533
516
524
529
515
506
505
498
505
494
466
456
488
516
512
510
512
510
497
491
492
495
494
495
491
472
458
501
554
541
517
506
516
522
519
515
545
577
556
537
539
526
502
516
545
547
529
532
537
540
522
514
522
527
536
548
571
563
542
528
513
510
525
551
560
564
552
549
563
573
557
549
548
534
523
536
561
555
553
543
532
540
532
524
523
522
521
529
526
508
487
494
521
526
525
532
531
514
504
516
524
538
559
545
523
539
530
523
527
542
545
544
536
507
500
492
487
487
514
524
527
507
485
484
502
528
533
540
544
522
503
522
547
525
531
545
548
528
515
501
514
529
530
525
522
516
488
463
463
479
503
516
516
507
498
488
496
512
506
492
491
504
506
513
530
546
573
577
551
527
516
516
536
550
546
525
500
493
475
472
486
493
502
507
523
509
482
488
504
538
541
518
508
495
481
490
513
524
513
503
496
496
493
485
505
501
489
474
465
458
466
482
492
502
518
520
502
494
460
457
485
498
487
490
498
496
473
475
501
518
520
526
535
527
511
501
514
516
508
499
492
493
483
477
488
508
531
536
533
540
536
545
566
583
565
554
560
554
532
519
535
568
579
565
547
535
525
523
520
520
509
509
524
491
464
479
491
489
487
495
505
509
500
488
517
559
606
643
708
772
818
857
880
888
841
762
675
578
488
426
392
374
359
352
361
365
360
386
423
449
458
438
440
431
412
414
456
489
489
471
456
448
448
473
486
484
487
497
496
476
465
469
498
507
502
490
482
477
467
479
486
495
511
507
511
524
512
504
502
501
502
512
516
510
516
516
518
522
518
518
521
514
512
488
505
553
555
540
533
503
489
496
505
526
538
541
550
540
525
514
515
531
541
558
574
569
566
572
562
543
559
580
574
557
544
542
562
584
584
578
572
539
515
495
519
542
560
557
538
502
478
477
485
490
489
480
468
452
436
431
432
424
416
425
423
396
384
390
403
416
417
408
402
386
374
368
374
405
415
414
402
384
371
400
431
452
445
436
443
429
410
416
433
435
427
426
436
442
448
446
455
471
474
473
463
452
446
459
476
467
463
450
443
449
456
441
461
482
478
475
484
469
438
439
466
478
478
492
494
472
444
437
456
484
487
469
468
469
457
461
470
482
499
512
526
510
476
470
471
479
478
472
483
477
482
502
517
509
496
471
457
459
461
469
517
545
522
491
472
482
484
483
488
484
485
504
504
483
464
471
500
516
518
512
514
525
508
503
520
523
514
505
500
488
494
508
509
509
497
511
523
515
487
480
499
520
517
522
515
496
496
501
508
511
505
502
510
492
468
468
485
497
502
514
515
497
480
499
490
480
494
519
508
462
438
463
482
496
496
511
508
471
436
432
449
466
471
470
468
453
442
473
484
464
454
461
466
463
465
469
487
501
526
515
494
475
452
445
476
480
483
502
507
476
462
466
469
478
484
485
480
468
463
477
488
491
482
487
485
464
464
478
488
493
490
483
488
492
485
486
502
513
493
491
502
490
489
496
491
491
504
511
518
505
481
477
494
496
496
516
507
490
487
497
501
492
472
468
476
465
449
451
476
481
489
491
482
466
459
473
490
493
523
561
600
650
721
797
856
870
828
766
700
597
517
474
436
411
412
410
422
417
406
412
444
460
460
468
467
449
429
443
465
465
467
473
467
448
456
487
476
476
477
460
460
475
484
484
474
462
458
478
495
489
469
457
501
522
520
516
502
464
449
466
505
505
501
502
504
490
491
484
478
484
494
486
470
469
480
511
526
529
535
537
531
518
516
520
536
547
537
534
541
534
522
529
547
558
564
564
570
569
555
564
560
570
590
600
595
565
551
563
576
583
576
555
543
543
545
538
554
557
560
563
561
523
488
487
500
490
478
481
478
462
439
433
441
447
443
450
438
399
378
386
408
424
421
442
466
477
452
421
420
425
440
444
424
417
428
432
432
432
443
444
442
440
429
416
437
466
461
458
477
453
431
460
480
491
483
483
487
478
476
488
498
507
516
519
514
501
509
531
529
524
531
539
527
487
466
484
513
525
543
554
550
499
469
474
501
493
487
488
486
482
478
484
506
515
517
527
511
484
476
481
495
501
516
541
556
552
512
507
514
504
496
498
481
472
476
488
512
520
524
521
508
483
468
478
496
535
565
544
520
499
486
485
502
527
531
515
502
490
492
499
522
520
496
505
520
508
510
515
518
535
536
531
523
506
503
513
522
527
545
523
502
499
518
538
548
553
548
567
577
561
544
546
548
551
545
550
537
528
529
549
566
552
542
554
559
560
554
565
574
558
541
545
553
540
531
547
574
582
569
548
542
545
543
540
561
568
564
569
565
548
541
554
569
565
553
552
554
540
545
546
564
580
567
557
544
527
541
559
575
591
606
600
576
555
536
521
525
525
530
542
554
539
525
521
534
534
536
550
550
528
512
525
535
545
544
543
542
529
522
529
548
551
573
581
571
556
546
545
557
568
567
561
564
555
556
552
550
533
525
548
531
499
479
492
514
525
529
525
511
491
488
502
525
543
592
639
681
735
808
850
861
849
815
758
672
575
503
457
436
433
441
448
444
435
429
426
431
443
456
463
462
454
444
440
451
463
470
476
449
427
427
460
485
488
494
502
514
507
492
507
522
531
548
562
557
540
525
535
564
598
607
595
560
537
526
538
548
553
576
575
556
531
521
533
555
563
582
599
608
564
528
536
553
570
575
589
594
579
569
591
606
594
589
583
580
561
558
572
587
592
593
605
602
588
576
593
601
598
589
611
612
592
576
580
593
605
603
594
585
575
576
566
574
571
556
543
524
502
491
500
505
507
496
491
487
465
444
438
440
426
415
433
434
417
413
435
457
453
452
455
430
410
402
414
445
452
443
437
425
410
418
435
431
439
461
473
463
441
431
424
452
471
479
481
479
463
453
457
473
493
516
539
541
536
528
511
505
509
506
516
532
528
508
512
518
509
517
523
525
541
546
537
544
532
518
519
512
492
464
457
478
511
517
518
523
506
488
488
500
504
510
519
522
513
502
506
512
498
491
513
515
494
481
496
505
500
488
498
527
528
536
527
520
520
526
519
507
498
491
484
494
518
539
544
533
509
492
490
502
513
510
496
484
472
480
494
511
528
516
508
499
494
503
506
495
499
494
489
477
467
469
479
493
511
515
510
504
486
480
490
515
537
528
521
511
489
462
459
496
520
518
501
497
486
478
493
510
516
517
509
516
532
505
480
483
501
523
531
515
496
491
504
507
506
512
523
518
505
506
513
516
507
509
524
508
487
475
483
511
520
514
506
508
492
480
504
518
520
504
498
495
502
505
528
543
538
532
539
528
507
494
509
530
534
532
529
530
527
518
517
529
552
559
548
526
512
542
560
557
550
544
534
528
533
539
543
561
551
534
552
558
546
532
527
533
531
525
514
504
498
500
509
516
523
520
520
531
520
514
532
569
587
611
660
715
764
810
849
868
849
787
716
640
553
485
438
404
388
378
360
339
333
360
403
444
453
456
465
483
470
450
468
477
475
472
462
448
443
450
472
477
477
486
506
495
465
467
487
500
506
504
502
493
471
469
494
528
553
536
520
496
479
480
506
518
517
516
524
506
483
483
493
520
534
527
509
500
494
512
535
552
557
554
560
554
537
544
555
552
551
552
558
568
571
571
582
588
596
597
591
572
567
576
589
597
597
605
614
617
597
602
599
595
590
593
596
583
562
558
581
592
580
580
565
541
523
506
500
509
499
491
487
464
442
452
457
449
437
430
435
431
417
412
431
455
453
430
413
401
396
401
412
421
427
431
431
425
420
427
435
429
431
426
435
442
424
417
445
457
448
444
443
429
418
428
449
469
473
467
461
456
447
447
466
493
505
491
485
476
458
467
487
498
504
499
504
493
487
477
482
514
523
514
503
488
468
459
463
472
470
479
491
496
484
474
482
496
501
492
486
476
474
485
494
501
497
501
520
501
479
475
494
491
492
497
492
476
469
477
489
505
505
502
504
510
503
499
494
496
502
510
512
504
498
507
523
516
504
498
514
509
505
495
507
519
527
519
512
501
488
491
502
524
533
529
525
508
484
488
515
522
510
518
535
538
519
507
513
532
544
553
543
523
508
502
519
526
516
510
506
511
501
495
507
520
517
522
529
521
516
505
496
485
492
509
527
524
529
528
513
501
504
522
527
494
485
492
506
519
506
494
497
498
486
484
481
485
494
506
517
500
479
489
500
512
509
501
497
480
468
485
503
503
504
516
524
512
507
494
493
496
491
493
489
478
472
483
492
500
496
504
519
511
498
495
515
527
522
525
518
510
506
516
536
531
520
515
526
536
523
512
522
551
561
559
548
531
508
478
475
490
486
468
447
451
458
475
484
494
486
480
496
483
466
475
509
573
626
673
729
775
798
802
790
755
689
602
518
430
362
350
353
364
367
379
395
387
386
391
401
412
423
433
419
391
386
393
413
431
448
450
450
446
429
418
420
432
438
430
435
430
427
434
445
443
439
428
422
440
445
443
463
479
485
481
470
476
474
466
481
494
487
480
476
466
464
470
477
478
485
479
473
467
479
485
494
512
530
526
524
512
500
505
520
525
523
533
539
529
516
526
542
569
590
583
566
558
547
543
563
579
574
571
574
571
561
565
576
580
586
577
564
565
569
553
549
554
556
541
515
484
471
466
470
469
469
473
480
460
439
436
436
442
457
466
452
417
382
385
414
439
440
437
432
422
406
401
397
410
427
429
414
402
413
432
455
477
474
456
448
446
440
452
467
471
457
466
479
464
431
426
465
510
502
493
487
477
467
470
477
502
504
503
495
476
472
488
494
503
517
524
534
503
487
497
510
501
488
496
504
480
467
485
499
504
506
511
526
517
498
504
520
537
528
522
529
517
507
508
518
519
515
522
520
515
508
516
517
511
525
522
516
492
482
492
508
518
521
522
524
525
498
483
511
541
542
540
540
524
506
505
519
540
544
551
550
534
526
519
515
507
521
537
546
528
520
512
521
526
504
495
509
508
505
505
511
524
520
502
498
527
533
517
521
520
526
539
541
514
485
489
512
526
537
547
544
531
506
502
523
531
532
538
528
517
512
517
516
510
508
525
527
515
504
493
519
535
538
532
518
506
513
530
532
543
545
532
523
501
483
482
499
544
556
542
529
515
501
503
528
545
542
534
526
521
515
529
540
518
504
508
517
515
503
521
527
517
508
508
505
486
487
504
521
513
516
515
509
507
501
497
501
528
532
519
515
517
524
504
502
518
515
519
527
525
503
504
520
546
548
528
524
519
515
524
539
533
523
519
524
515
503
513
531
527
530
557
567
546
534
542
552
551
537
507
489
475
473
497
528
528
514
513
500
477
460
474
497
513
532
572
638
691
734
799
860
873
859
821
751
674
594
532
477
439
416
410
414
425
442
448
458
462
469
481
477
443
424
434
456
463
459
455
456
448
448
454
478
501
491
481
469
464
455
468
492
500
493
495
506
499
500
496
501
515
530
533
515
506
505
511
517
519
510
503
501
506
504
507
522
532
544
564
544
522
514
528
528
526
541
556
556
553
558
558
559
558
551
551
555
559
563
561
566
575
585
611
606
584
571
598
623
631
628
619
602
610
606
614
643
632
617
609
598
590
596
603
612
600
579
576
582
578
566
553
549
547
542
528
514
504
489
490
489
482
487
493
487
463
458
466
456
443
448
457
463
448
436
436
431
447
468
472
478
475
486
492
479
481
479
482
481
472
471
477
493
497
496
512
509
489
482
499
538
546
531
537
558
540
525
534
542
540
539
540
552
558
554
547
551
558
558
554
556
548
531
529
541
554
557
562
551
531
519
521
528
538
560
575
557
535
530
542
549
548
540
538
519
504
503
511
540
553
551
545
546
530
507
515
530
522
536
541
500
469
467
482
495
501
512
523
530
534
525
514
504
496
502
513
503
490
483
492
520
527
530
539
522
494
493
509
517
508
517
520
508
496
494
508
517
516
520
508
505
508
499
498
500
514
527
537
536
525
521
530
527
534
542
540
535
523
515
518
510
508
515
513
516
517
497
477
476
482
483
507
506
496
482
486
520
541
537
530
522
516
497
496
507
527
521
515
523
524
502
497
503
508
521
530
529
506
487
493
496
508
513
512
506
497
490
502
521
524
526
529
520
508
502
514
524
533
529
534
528
516
496
473
489
500
502
509
507
502
498
510
522
536
540
534
529
509
496
503
520
527
520
519
513
509
527
534
530
525
538
543
535
515
503
512
514
514
507
506
508
509
516
519
526
527
529
524
516
507
510
516
525
538
551
553
552
529
527
541
550
553
555
553
550
545
533
522
529
523
510
531
547
523
506
509
522
533
522
513
499
513
513
507
515
526
534
518
500
488
485
498
532
570
612
670
730
784
821
860
874
843
784
706
620
533
463
418
404
390
384
370
363
359
387
414
451
475
484
489
471
447
437
434
444
452
462
478
483
466
463
462
469
480
482
491
481
488
502
497
491
479
459
471
493
487
482
488
495
501
511
509
499
488
487
507
524
529
522
512
507
510
526
525
534
533
531
541
533
519
524
533
541
535
536
559
571
560
553
548
557
580
585
576
554
539
549
564
585
607
621
619
607
586
590
601
602
613
608
613
609
598
590
607
617
612
601
589
573
556
546
555
565
582
593
586
560
543
535
527
524
516
509
502
492
474
467
471
466
452
452
461
463
450
437
429
436
421
413
407
388
372
378
398
417
436
438
432
426
415
407
413
428
435
428
429
424
419
420
431
437
445
456
481
484
458
454
466
473
491
490
482
468
445
447
468
480
484
487
481
473
467
481
489
488
485
497
500
488
462
455
467
479
482
507
526
517
486
479
491
502
520
514
500
487
464
465
480
484
484
495
500
493
484
494
499
501
499
489
487
486
478
472
480
490
507
516
505
505
505
509
519
522
516
515
518
515
501
516
526
532
540
535
537
536
530
516
498
493
511
520
522
517
502
504
524
544
554
547
534
526
512
503
511
511
516
524
535
532
516
508
514
531
534
538
531
518
494
492
505
498
506
522
538
548
531
501
500
509
509
518
525
515
504
484
487
501
538
536
528
519
506
497
501
520
532
543
540
522
523
517
508
514
512
513
517
504
482
490
504
520
525
520
519
515
507
507
513
528
526
519
515
504
504
494
487
514
514
524
525
513
490
495
508
504
506
520
520
486
469
482
500
524
539
537
531
518
505
507
508
512
514
530
544
544
509
504
517
531
535
523
506
491
489
502
518
516
499
498
512
512
502
505
537
555
546
533
528
531
521
511
508
527
543
547
549
544
530
532
538
546
551
534
531
538
536
535
531
541
557
570
573
560
533
522
531
528
521
523
526
513
505
493
495
498
497
498
501
499
492
492
505
523
535
564
611
656
694
755
820
877
884
853
803
727
633
568
521
476
434
405
400
404
391
404
447
451
442
446
450
437
418
429
443
445
455
486
485
469
466
465
462
467
485
492
489
474
461
463
465
475
486
482
478
471
455
465
485
482
482
485
501
492
471
481
502
508
510
509
512
508
499
508
526
531
544
541
531
493
475
490
511
515
498
497
521
527
512
514
530
543
547
551
547
536
536
547
560
562
566
575
572
566
559
564
590
596
587
590
600
596
584
586
603
611
599
580
579
570
557
559
584
588
595
594
583
566
537
514
518
521
510
502
502
498
483
481
475
457
457
448
435
428
429
424
425
426
422
436
445
429
397
393
407
419
431
441
437
421
421
422
430
449
439
436
453
457
444
445
451
465
465
469
472
460
444
439
461
489
496
485
482
476
473
483
500
502
505
505
501
484
460
455
469
500
493
492
503
502
486
483
503
512
516
511
507
503
500
484
479
489
499
508
499
486
487
490
500
510
500
487
491
485
478
490
507
506
503
512
514
508
503
497
499
496
496
503
501
502
484
469
487
516
525
522
513
508
494
490
487
475
479
504
514
516
506
503
501
518
507
493
486
478
468
476
492
497
499
507
508
502
491
485
508
522
510
507
505
491
475
483
499
507
515
515
514
507
498
497
517
514
497
489
492
497
496
498
506
514
522
517
504
498
481
481
519
532
514
494
494
499
500
504
524
535
524
517
520
506
496
493
491
487
482
486
487
513
515
510
519
526
527
526
510
472
456
496
538
548
542
539
529
516
507
504
513
529
533
530
535
522
515
521
529
548
540
534
530
508
476
485
510
520
522
513
515
514
505
503
514
526
536
530
522
513
504
514
547
555
527
516
524
526
514
520
546
539
521
525
518
492
480
507
537
545
537
532
527
505
497
504
516
527
527
539
557
547
532
524
520
523
518
520
519
495
501
514
519
533
543
548
554
549
527
514
527
536
533
529
537
524
499
487
490
490
486
505
521
507
480
454
468
485
483
473
459
461
465
480
534
585
631
687
748
791
820
841
838
793
742
680
597
518
445
406
406
416
429
437
438
433
419
415
439
457
457
459
456
446
433
430
431
442
460
467
471
452
438
461
471
476
473
486
490
476
466
474
476
469
475
494
509
492
475
479
492
495
481
479
485
483
480
495
500
510
526
523
508
495
482
474
495
519
536
550
542
510
495
504
524
533
526
523
519
512
522
528
535
544
556
561
555
540
528
539
554
567
590
594
580
570
570
574
587
604
596
581
584
580
567
569
600
598
595
594
573
551
546
547
547
544
538
544
546
527
505
495
497
516
502
487
481
469
463
453
453
439
427
444
462
459
435
416
418
423
427
429
432
423
413
424
440
437
444
468
464
436
438
429
426
417
425
438
446
439
441
462
467
472
473
473
476
460
447
447
452
471
477
468
473
485
482
484
496
502
492
492
484
481
489
493
478
488
498
499
500
494
493
493
506
521
530
524
529
507
496
495
504
504
503
507
514
496
479
489
492
484
496
518
515
502
492
485
492
515
524
526
515
499
498
495
509
525
533
522
508
482
465
487
509
518
515
512
508
498
484
480
509
529
521
508
502
501
502
518
531
533
534
532
524
504
482
476
473
482
503
508
514
505
506
506
518
529
532
518
498
489
494
505
509
531
546
541
522
505
489
488
492
512
529
523
514
501
505
523
544
561
553
539
524
510
523
525
517
510
506
512
527
518
499
485
490
506
510
519
513
491
473
480
508
524
508
499
503
499
484
496
522
533
532
535
547
524
496
485
482
490
489
513
522
515
510
497
511
512
512
512
503
493
487
494
499
506
525
532
521
495
475
487
496
510
522
534
523
502
487
485
497
499
487
498
525
521
515
497
502
511
509
498
498
492
496
510
512
501
491
490
485
467
460
468
487
509
522
531
517
503
503
506
525
534
535
528
535
524
507
513
532
540
534
537
545
533
538
521
515
524
517
512
496
471
483
497
518
544
545
538
528
512
495
498
515
519
506
510
524
502
487
482
491
501
500
495
504
524
558
594
648
713
787
848
892
883
841
774
700
618
558
507
450
391
358
352
362
380
396
428
446
427
426
433
436
448
454
460
456
444
440
438
439
454
465
473
470
455
455
474
475
478
482
480
462
458
471
481
495
501
507
503
498
482
475
491
505
511
514
512
508
489
484
493
506
504
510
534
527
503
492
506
524
534
548
550
531
518
519
530
548
561
561
555
545
532
541
554
570
573
572
561
549
553
563
581
592
599
608
605
591
582
579
595
619
624
623
619
615
599
594
588
585
584
582
593
596
572
562
569
565
566
553
544
537
519
499
496
488
487
495
490
465
441
432
452
456
448
432
425
429
412
405
418
430
431
430
444
424
405
404
415
424
425
425
444
456
454
451
454
454
480
480
465
458
444
440
445
464
484
485
476
466
448
455
471
480
484
484
487
491
481
461
458
468
486
507
517
513
504
516
512
507
495
488
489
485
474
457
473
515
517
512
522
493
453
444
460
487
508
512
504
485
474
464
460
470
481
498
504
497
484
484
496
503
496
500
506
488
471
472
468
475
493
492
486
481
473
479
499
507
500
504
507
487
468
472
478
481
496
500
500
491
478
466
479
482
476
490
500
497
485
479
489
514
505
491
492
489
479
489
500
504
506
506
497
489
487
492
493
499
503
508
513
513
501
496
502
506
505
502
492
485
501
526
526
521
513
519
520
524
508
496
499
523
532
528
521
509
498
494
501
516
522
505
496
486
491
504
512
527
530
525
508
508
519
519
537
556
562
544
541
525
512
496
498
512
512
519
535
527
514
509
514
515
503
504
500
503
508
498
500
506
520
526
526
531
503
493
509
507
503
521
528
528
505
509
536
533
511
508
511
511
493
481
490
508
517
526
518
518
513
507
527
527
522
523
530
527
511
513
535
549
540
536
543
535
522
517
518
537
542
534
531
528
523
529
531
547
543
535
542
542
522
518
531
533
525
529
517
501
497
492
495
494
484
491
507
506
493
495
498
496
492
506
532
578
641
710
787
841
884
882
824
762
673
582
512
460
418
403
388
382
392
399
420
439
456
453
452
448
443
440
438
446
454
455
467
480
459
443
448
458
464
465
459
462
464
464
475
503
517
514
504
489
476
483
496
505
514
507
495
482
467
480
496
517
526
529
521
504
493
490
505
513
506
513
514
519
525
520
528
543
567
569
565
555
537
539
555
568
576
570
569
563
534
540
571
581
581
573
569
566
557
560
583
593
596
594
592
580
571
573
582
594
602
606
607
601
581
568
574
576
569
562
557
551
536
527
529
540
534
521
511
486
450
437
445
453
461
469
455
425
402
400
414
420
419
414
415
415
405
408
428
432
448
456
446
439
434
428
423
430
433
436
442
441
430
428
441
449
459
465
453
452
440
433
460
471
472
485
483
464
442
454
492
497
488
481
483
478
462
485
508
509
504
501
508
504
506
508
507
516
518
518
527
525
533
529
517
511
514
525
540
541
511
501
508
519
528
525
512
492
489
505
527
516
529
537
525
519
508
502
505
523
531
527
521
519
495
487
496
496
502
505
519
526
512
501
498
510
517
498
506
517
488
476
492
517
521
515
514
519
508
492
486
492
496
494
505
517
510
508
515
528
533
527
515
494
481
493
503
525
536
524
515
509
497
484
494
516
537
533
505
501
496
498
504
512
515
514
513
510
511
505
512
534
532
523
536
528
510
504
515
524
529
536
542
535
514
515
526
525
521
526
529
526
512
495
497
513
536
554
560
532
506
500
503
507
516
517
512
496
487
495
524
526
514
520
516
504
505
517
524
528
523
520
525
527
543
547
538
547
537
528
532
522
504
491
496
495
507
520
530
515
514
532
543
535
524
518
501
485
477
488
514
524
533
531
524
515
504
500
516
534
544
560
556
537
532
537
543
538
530
533
531
524
510
515
519
515
520
529
547
542
531
542
552
561
563
559
565
561
549
545
563
570
567
573
588
591
577
568
554
581
598
595
597
580
558
554
565
579
564
536
533
540
538
527
520
521
526
525
519
500
488
484
494
505
517
528
525
527
549
617
684
737
774
809
830
804
752
694
642
580
524
481
453
402
367
372
398
423
419
425
450
455
432
429
440
447
443
438
437
432
418
410
424
455
472
468
464
448
440
438
450
457
455
474
480
465
454
445
464
497
504
506
497
482
467
471
492
500
501
501
495
484
481
507
520
508
506
506
512
513
502
487
490
502
503
517
532
529
519
539
552
554
544
538
552
548
537
548
549
563
581
589
573
553
546
570
589
595
597
605
607
585
572
578
584
594
593
587
599
597
589
587
599
600
585
581
581
578
584
576
566
556
544
543
540
502
477
463
478
496
493
481
465
460
469
460
447
436
435
436
432
412
403
401
420
429
440
442
420
403
400
414
435
451
453
456
471
458
441
439
451
449
448
444
445
435
431
445
480
496
482
479
473
460
464
476
484
477
466
473
487
482
476
489
494
510
500
489
485
478
474
494
507
509
508
524
525
499
488
493
503
513
513
497
498
508
508
501
496
501
506
500
489
486
485
490
500
490
491
510
527
504
484
480
499
505
491
500
519
509
509
507
514
509
512
518
514
499
466
469
486
494
481
478
486
486
474
464
479
515
521
520
507
497
497
494
498
502
495
494
495
494
491
502
502
509
498
487
485
472
478
493
497
506
502
496
498
490
479
484
496
513
519
534
534
505
471
476
490
512
515
512
505
492
494
503
500
499
510
509
505
500
499
502
490
483
494
508
511
491
485
506
517
527
546
542
530
525
525
527
527
526
514
513
516
504
499
500
498
499
502
503
503
507
507
514
525
545
552
533
526
511
507
504
511
545
542
531
530
519
514
510
511
517
525
543
552
522
493
490
498
520
528
528
521
511
502
521
524
521
521
531
536
526
509
498
505
530
540
547
538
518
512
500
504
523
549
545
529
510
500
505
516
531
535
525
513
506
505
517
530
528
533
541
562
557
530
525
554
568
564
557
549
532
529
530
538
551
552
556
551
541
533
543
555
546
540
560
570
552
533
521
541
540
527
529
504
485
486
516
539
542
537
523
514
499
494
496
510
536
570
615
666
712
782
843
887
898
863
801
716
622
542
482
432
404
400
395
391
398
411
434
451
453
467
468
454
448
448
447
456
463
478
485
481
452
438
459
468
476
505
515
508
492
484
478
478
487
495
505
499
493
492
496
515
527
512
510
497
478
487
527
527
530
529
523
522
513
499
495
506
522
524
518
526
520
513
507
519
531
536
547
542
535
534
534
541
549
554
575
577
553
551
579
583
577
581
584
588
593
578
569
579
592
591
591
589
594
606
599
598
598
613
623
603
583
568
562
571
591
587
573
543
528
528
543
541
524
505
493
483
472
470
482
480
453
435
440
432
423
419
418
425
427
432
417
396
428
426
426
420
414
411
413
414
404
407
413
429
446
451
459
453
430
418
423
436
448
457
462
453
445
456
464
472
496
503
487
486
491
473
475
488
485
485
474
467
466
472
481
508
520
529
513
486
473
487
508
530
532
514
494
481
481
471
468
481
493
508
523
515
491
470
467
477
485
496
503
502
483
486
507
514
517
513
507
497
479
470
471
484
493
495
488
483
490
488
488
498
504
513
516
507
519
511
506
509
500
493
493
489
489
489
496
497
508
512
509
500
489
478
478
492
492
493
508
503
493
485
491
497
492
501
508
509
494
481
488
503
514
526
526
507
490
478
488
512
526
528
512
503
489
492
506
517
526
533
525
504
490
491
497
519
532
530
516
497
486
486
500
517
522
521
513
507
499
504
510
514
514
508
516
520
497
476
479
508
521
522
530
523
507
507
517
515
516
512
510
509
501
494
502
515
522
528
525
512
495
497
518
513
506
511
533
519
495
495
507
516
502
495
498
497
491
494
507
523
525
518
497
489
507
523
532
532
540
544
537
525
510
503
510
532
552
559
548
528
514
510
515
524
514
522
535
543
525
504
510
522
540
555
564
550
511
507
514
532
544
546
541
533
525
525
537
546
552
554
552
535
523
510
500
500
506
506
519
531
517
510
529
540
538
528
517
523
507
491
501
521
547
584
631
698
764
816
862
878
846
792
725
640
564
500
461
439
418
404
408
417
409
422
436
465
485
483
467
455
443
436
439
446
450
466
488
495
492
461
452
460
463
466
477
479
462
469
489
503
505
486
475
466
454
460
483
489
483
485
497
490
471
472
480
470
482
518
533
522
504
513
525
517
514
516
505
508
503
518
545
555
546
531
528
517
496
506
528
543
544
537
546
550
535
533
550
553
560
573
587
583
573
569
577
592
596
595
593
589
576
576
589
583
584
587
581
573
560
554
577
584
572
568
562
545
525
513
504
492
485
494
498
488
462
451
448
447
445
454
456
441
430
425
430
432
429
419
413
403
395
406
415
418
420
439
445
434
418
417
425
436
431
428
438
441
434
431
424
442
460
463
456
457
445
437
448
457
463
454
460
456
436
431
471
517
515
495
483
479
463
460
475
481
487
500
503
487
473
479
495
503
507
488
488
485
482
494
506
500
496
496
488
472
461
470
489
481
469
479
495
500
498
500
510
508
507
502
509
495
484
485
495
501
504
500
497
502
500
501
501
502
497
505
510
501
491
491
487
489
493
506
510
493
474
473
496
500
501
503
521
530
511
497
500
517
515
513
507
492
496
523
525
530
529
522
507
499
494
503
510
511
508
507
520
531
513
502
508
520
531
536
528
517
498
483
495
509
518
531
548
531
506
495
490
508
529
536
539
529
502
489
496
504
520
521
517
503
501
518
530
531
520
520
527
515
495
492
498
514
540
548
527
521
502
491
495
509
520
541
542
524
504
500
505
509
522
523
522
510
508
509
514
526
512
507
505
500
497
501
500
512
511
530
536
529
510
500
507
509
504
515
529
517
501
500
512
515
522
527
532
529
515
513
519
526
524
530
536
511
509
507
508
524
530
525
525
514
501
499
509
521
524
518
516
509
529
543
540
535
543
548
561
550
532
539
557
536
520
523
544
543
534
537
539
542
539
529
524
511
502
491
495
507
515
520
520
510
516
498
496
497
489
484
488
493
484
490
550
608
671
740
796
828
846
841
820
777
721
651
563
480
426
406
404
410
415
424
432
438
432
423
448
480
481
481
464
448
444
452
467
472
466
469
470
448
440
460
483
496
494
502
507
496
483
481
497
492
485
500
505
491
470
477
519
530
514
503
499
499
503
509
525
531
532
523
505
505
507
514
525
528
541
565
570
541
514
498
520
547
549
558
556
547
541
538
543
550
552
572
572
563
552
553
564
573
581
582
576
567
571
588
604
612
606
604
599
592
600
601
595
611
612
615
616
608
606
587
554
552
556
552
538
534
541
526
527
526
510
502
494
484
464
450
460
464
451
438
436
421
411
419
433
442
438
442
448
435
421
423
442
455
435
426
424
413
420
448
466
465
458
464
455
432
427
434
452
473
480
471
458
462
463
458
468
473
481
491
484
471
461
462
479
485
482
505
509
482
471
473
487
496
499
496
499
491
479
481
486
489
483
474
471
476
494
500
496
502
504
497
496
493
488
485
495
501
506
515
526
501
473
474
488
498
503
511
514
500
489
489
502
502
494
489
484
473
487
507
507
499
498
507
514
486
474
492
510
525
526
523
508
509
513
514
511
513
514
524
529
535
517
514
528
516
498
497
512
519
518
515
512
509
513
515
514
500
485
495
517
518
527
530
527
514
507
503
514
533
535
519
516
513
503
522
547
542
525
521
509
501
503
511
516
521
518
522
529
516
499
509
520
525
520
512
513
507
496
502
529
542
534
533
528
517
511
529
543
561
558
554
547
517
487
498
506
524
536
533
513
509
510
510
512
517
510
513
507
503
485
481
482
489
508
516
510
493
482
505
514
509
508
496
488
478
479
486
488
496
507
512
517
502
485
479
490
499
505
503
498
491
487
490
502
522
534
546
531
492
493
507
514
517
521
527
529
525
512
522
524
528
532
527
527
519
514
516
530
545
540
527
527
530
522
513
516
523
531
513
496
488
490
500
503
516
517
503
491
483
481
490
485
489
524
573
628
672
726
804
866
886
873
836
769
668
567
508
454
401
365
348
349
362
369
383
414
429
439
442
440
424
429
444
443
446
450
449
469
463
454
455
456
463
479
476
457
453
458
460
477
496
500
505
487
463
447
458
486
491
495
493
485
477
466
479
512
517
519
516
512
503
494
496
507
509
507
506
503
501
504
512
523
529
535
533
533
536
532
548
558
559
564
569
574
567
560
566
571
580
583
591
591
596
604
600
596
605
609
616
610
595
583
593
608
611
608
584
577
583
592
596
585
575
580
577
580
575
550
540
541
532
531
525
508
488
475
482
485
497
497
486
470
444
415
418
434
441
448
449
444
414
406
409
408
419
430
440
444
441
440
436
438
436
443
458
449
441
447
468
478
480
485
487
480
473
470
466
467
476
488
489
494
478
471
488
506
506
505
497
493
485
480
481
487
491
475
485
513
513
509
496
506
515
520
507
496
475
476
489
488
502
509
503
486
482
474
481
496
507
516
516
490
494
493
493
501
506
506
500
501
500
486
488
520
538
525
514
509
495
487
488
491
500
511
516
512
493
495
506
520
516
505
527
535
522
509
502
513
527
540
532
513
501
490
495
502
501
503
525
522
512
515
529
540
539
540
531
522
517
521
514
518
519
502
493
492
501
510
521
537
548
533
518
515
499
499
513
527
528
533
537
527
503
494
503
521
526
526
531
537
520
500
520
537
538
539
528
507
500
508
514
514
516
511
504
498
496
507
508
509
508
506
542
543
520
502
507
521
521
508
520
559
541
517
517
522
527
520
522
510
491
489
495
509
520
521
521
516
499
495
510
513
522
523
519
520
502
496
518
529
537
525
501
495
492
497
509
518
521
515
528
536
520
513
528
543
544
537
532
524
507
509
526
545
546
546
540
546
535
530
531
546
557
543
525
507
486
474
471
473
481
491
500
491
472
479
508
515
516
527
532
565
609
654
738
835
872
880
865
813
740
650
570
514
456
408
384
366
352
366
401
428
429
424
426
444
434
436
459
472
479
479
469
456
446
460
473
472
471
468
472
481
463
448
458
486
518
525
510
492
476
481
487
486
492
497
496
496
496
487
494
501
509
520
508
492
485
490
500
511
522
533
541
545
532
520
546
552
532
529
528
534
522
526
541
541
545
542
548
563
553
536
557
573
573
567
560
547
541
555
570
579
597
614
612
601
599
596
586
582
585
586
586
581
571
580
594
600
597
591
588
556
520
514
513
517
523
540
535
517
491
460
447
464
473
478
454
444
454
444
443
435
427
422
421
417
402
402
420
432
431
419
421
419
401
418
442
442
438
446
456
454
438
429
433
445
456
447
448
467
455
441
445
460
485
484
480
480
479
483
486
493
497
506
505
487
462
452
469
492
510
508
484
470
467
479
494
500
503
505
517
500
467
462
495
506
505
509
504
488
475
471
480
517
530
514
489
488
484
484
499
506
503
505
508
510
495
494
497
484
477
484
508
518
506
508
509
512
500
497
491
487
479
466
475
498
510
515
533
529
502
490
489
494
502
508
513
503
491
488
493
500
504
508
519
510
499
493
512
521
513
504
506
498
495
482
481
525
542
525
518
517
506
493
509
515
513
510
506
494
487
501
513
509
511
525
519
513
517
533
537
529
524
512
514
512
495
489
496
527
536
517
509
498
496
499
502
520
537
527
520
502
483
476
498
516
510
511
513
507
492
503
531
540
528
519
532
513
494
498
512
526
532
518
508
492
476
481
499
517
515
515
532
523
502
491
498
500
497
489
495
520
518
509
523
527
523
525
536
544
531
499
501
504
502
511
513
504
493
513
537
540
527
528
538
536
517
510
526
531
541
543
532
531
530
524
544
550
542
533
525
522
526
527
521
505
496
514
506
483
465
486
506
500
507
507
510
515
543
612
692
737
784
826
839
812
781
742
683
607
536
483
432
399
386
388
398
409
417
427
446
443
441
454
437
418
418
423
428
436
455
474
483
470
466
443
443
436
438
446
458
463
468
496
478
449
447
460
467
475
474
477
488
487
483
478
477
484
505
538
551
533
514
489
479
481
489
515
527
525
497
493
515
525
516
522
547
547
520
522
543
558
560
561
559
544
538
555
578
581
579
575
569
560
567
590
600
620
626
618
612
609
601
606
613
619
631
640
635
604
592
597
595
588
596
612
618
615
592
569
570
578
564
559
577
576
551
536
524
518
528
508
481
463
457
463
472
470
463
472
469
450
443
436
451
487
470
458
448
442
443
446
452
458
465
477
475
468
458
459
462
471
475
482
479
467
457
461
467
468
469
475
478
472
459
478
501
519
536
500
475
484
497
496
497
503
527
544
525
486
480
497
507
513
518
520
536
524
500
501
518
516
509
516
516
500
487
500
518
507
491
510
523
509
497
500
522
534
517
493
486
481
467
478
515
529
516
505
505
508
499
497
505
524
524
512
502
497
496
484
489
508
522
519
508
512
502
481
488
505
483
461
475
488
485
497
533
544
541
549
544
526
497
492
515
534
530
498
491
493
483
509
550
557
538
532
537
524
500
522
517
492
493
500
501
496
494
500
503
509
530
539
532
517
503
499
503
509
516
523
519
498
493
502
510
527
555
551
528
502
496
499
500
505
511
520
519
505
515
540
533
537
540
527
511
498
490
501
515
530
545
557
547
530
526
540
544
535
520
516
518
517
550
560
547
531
528
526
516
522
522
507
515
540
548
548
556
544
524
510
527
533
518
514
522
528
513
510
523
532
538
545
546
542
531
535
539
539
542
540
533
535
549
541
543
543
547
542
538
525
519
511
523
533
520
514
527
513
486
500
519
517
516
499
499
496
493
491
504
519
539
577
612
656
710
790
855
884
880
847
777
691
591
506
451
405
371
354
346
340
364
377
389
408
424
439
450
454
454
465
475
457
451
454
445
422
416
427
451
472
474
471
463
458
461
470
489
498
501
491
490
478
463
470
489
502
511
508
491
476
473
475
481
490
500
513
505
498
488
490
506
512
512
511
510
496
496
523
539
544
559
574
550
512
500
521
528
521
531
538
528
515
528
552
569
584
583
590
590
568
553
559
579
594
596
587
580
586
597
607
607
608
602
605
602
592
563
546
553
562
556
549
558
542
529
527
542
535
523
512
492
471
462
456
450
456
459
453
433
413
407
412
424
423
415
436
429
407
393
385
391
426
440
436
424
412
402
400
403
411
424
442
456
447
429
421
437
456
462
470
464
448
437
447
469
471
478
482
470
472
482
491
475
487
497
504
486
469
476
476
472
467
467
488
494
486
473
473
477
481
485
485
478
463
464
467
484
514
514
498
478
461
464
485
490
505
509
498
494
479
468
482
500
487
478
487
498
499
481
466
473
484
481
474
465
465
464
480
482
474
480
502
499
473
463
485
507
508
509
510
504
479
475
479
491
495
487
487
484
467
460
468
484
498
517
513
495
484
476
481
496
506
503
498
494
492
495
501
502
505
498
504
499
482
474
490
505
502
499
497
504
505
491
502
523
514
508
506
502
492
487
499
512
522
537
515
499
485
490
504
512
510
518
522
511
508
516
513
499
505
516
507
503
495
489
506
519
529
526
518
519
514
507
509
518
535
534
515
517
512
491
506
521
523
516
520
504
486
488
508
524
525
521
528
522
499
487
514
532
527
510
508
500
494
507
520
539
547
533
532
538
524
518
525
546
549
545
543
532
517
511
531
546
548
543
533
521
512
509
503
504
505
505
496
490
494
498
501
507
515
516
510
496
482
483
520
563
610
679
751
816
854
869
860
817
734
648
579
508
434
400
398
390
370
377
407
420
412
408
410
417
438
452
455
456
447
431
438
457
471
477
480
471
460
452
442
446
442
453
485
504
492
486
494
501
495
489
478
457
433
438
471
504
507
510
507
500
493
492
496
499
493
491
495
500
493
493
498
525
541
535
527
522
519
519
523
523
524
541
558
549
528
523
534
554
565
558
561
549
539
546
559
572
577
579
586
579
569
577
585
597
592
587
606
619
606
592
589
585
585
597
614
607
579
558
563
565
579
587
575
557
544
523
500
504
495
481
480
467
443
434
451
472
477
457
436
422
419
413
419
423
416
407
404
399
393
393
406
428
435
431
424
416
414
421
428
434
436
438
435
431
422
415
429
445
453
458
463
466
450
446
475
496
482
474
484
476
460
440
450
471
478
476
482
479
468
468
478
484
486
491
496
497
471
472
504
526
521
501
488
471
463
478
503
509
501
506
498
483
467
478
507
513
510
510
502
486
465
471
495
515
525
507
500
495
483
468
482
502
504
509
516
500
481
477
481
501
520
521
527
512
495
500
509
518
512
502
508
502
480
486
504
499
504
509
519
521
506
499
505
518
530
532
539
517
497
496
507
518
515
524
521
519
508
498
509
522
508
503
512
510
502
503
507
522
534
514
526
535
513
489
493
534
530
524
518
502
494
502
518
537
548
544
553
536
510
499
503
506
513
530
527
511
505
504
508
516
528
542
537
527
505
492
493
505
518
520
504
491
503
518
521
517
520
546
544
524
512
509
519
533
537
550
549
529
511
508
526
545
556
562
552
535
535
548
548
544
547
551
558
542
529
540
544
545
540
530
514
504
494
503
514
528
533
523
519
497
474
469
491
515
519
524
543
562
593
664
746
828
876
893
874
806
744
675
601
529
471
437
416
398
386
393
415
434
443
452
456
445
429
435
454
471
464
452
454
445
425
415
436
468
503
522
512
498
483
473
468
479
487
503
515
490
475
478
490
496
497
496
508
496
485
482
493
514
516
523
524
504
489
503
525
539
541
540
527
533
509
501
511
526
536
554
548
543
546
550
551
564
556
551
554
541
533
542
565
586
586
575
578
583
573
576
590
600
606
607
599
595
578
570
605
640
636
623
609
582
560
571
593
592
590
589
590
582
550
542
553
567
544
519
495
492
483
458
454
465
462
451
439
444
441
424
425
447
451
446
443
426
404
398
408
420
415
430
438
419
414
422
440
454
448
447
446
433
425
433
465
470
464
462
458
450
437
441
458
473
487
486
473
453
432
444
478
487
484
465
460
485
488
475
485
495
497
501
503
501
502
504
496
493
498
497
486
463
462
483
513
511
500
506
515
498
479
468
486
515
516
507
504
484
467
472
494
512
510
516
504
496
487
480
493
500
498
497
496
495
483
469
464
479
509
519
518
498
489
496
489
500
505
496
482
480
490
515
537
530
511
514
509
483
460
450
473
499
505
487
487
505
485
483
504
522
529
503
491
478
484
510
501
494
508
527
541
514
489
499
523
553
546
532
530
525
512
533
552
549
546
535
531
545
563
575
589
591
580
573
573
565
566
576
599
632
625
636
632
603
592
577
585
600
609
621
624
607
610
623
632
643
649
655
663
650
627
624
639
643
653
649
645
667
689
693
682
671
670
667
663
660
644
630
630
628
624
617
587
573
580
607
623
616
608
618
599
572
565
578
595
614
637
671
720
786
853
920
965
952
910
850
771
664
575
511
460
437
422
424
432
450
483
485
457
443
441
442
454
462
458
450
452
456
468
471
456
454
459
451
453
455
441
456
463
452
437
439
446
462
459
452
448
427
422
430
433
441
447
447
446
433
416
413
425
442
457
461
451
440
430
431
437
451
451
462
482
483
465
468
471
464
464
466
468
463
461
464
479
487
479
481
489
494
482
463
474
498
500
505
510
497
495
492
511
525
535
541
543
531
530
536
544
546
547
539
534
528
522
518
510
500
511
504
495
473
463
473
476
473
460
440
425
410
393
398
401
388
381
380
373
388
387
378
377
368
382
378
367
349
346
354
364
358
355
367
380
370
351
349
359
381
391
394
379
364
357
361
374
378
381
381
382
373
390
408
411
409
410
416
403
378
372
386
404
413
411
411
410
401
388
399
418
435
451
458
449
419
406
424
449
449
441
441
447
432
415
433
466
465
440
425
434
441
453
452
457
468
460
470
476
467
440
452
487
504
505
494
472
450
434
426
432
451
463
461
444
425
417
420
428
457
476
517
503
470
463
477
499
527
522
494
450
400
380
405
449
479
494
493
460
416
402
420
462
497
518
525
496
435
408
429
494
532
524
496
465
385
326
367
451
506
535
542
478
361
324
381
464
517
534
501
443
356
309
348
433
501
518
509
480
399
358
411
500
577
600
585
526
445
415
476
547
600
609
586
547
474
419
467
559
616
644
630
579
488
446
497
596
647
674
677
619
520
477
515
603
656
640
608
520
420
395
456
563
623
641
640
575
459
411
476
728
1023
1023
1023
1023
1023
1023
1023
997
686
452
249
134
73
40
23
13
8
5
4
3
8
36
23
12
7
5
19
53
104
141
107
55
28
15
18
66
152
207
197
149
102
93
104
138
209
266
245
197
185
222
238
241
265
304
296
276
266
287
289
306
349
393
392
365
348
344
349
371
415
446
450
437
434
450
491
541
578
586
578
575
575
589
621
639
602
575
596
652
677
673
654
623
592
581
616
660
684
692
680
621
544
543
610
699
741
726
717
685
607
560
599
665
701
715
687
617
537
516
586
691
736
732
743
689
596
546
575
632
653
642
618
551
455
423
495
597
656
675
668
587
558
1023
1023
1023
1023
1023
1023
574
300
160
86
47
26
15
9
6
4
3
2
2
1
1
1
1
1
1
1
1
1
1
1
1
1
1
1
1
1
1
1
1
1
1
1
1
1
1
1
1
1
13
37
64
102
121
124
136
126
126
150
194
248
270
291
302
300
289
293
323
339
337
345
361
346
351
373
393
416
430
453
454
446
442
459
465
460
472
512
518
488
473
497
527
533
531
529
518
497
496
523
547
559
574
585
576
540
525
545
584
598
586
589
582
563
559
570
583
584
589
605
604
595
592
604
602
600
618
618
610
606
603
605
615
624
624
640
624
595
599
612
622
642
645
634
624
620
624
642
643
636
641
642
630
615
601
604
636
646
643
634
627
621
630
636
650
677
676
650
635
628
619
616
627
632
640
650
646
633
627
634
647
647
647
658
655
649
650
650
644
652
656
655
661
656
643
659
667
688
706
691
676
670
655
650
659
660
653
653
628
616
614
614
617
620
635
635
621
614
616
613
620
657
698
744
790
840
907
987
1023
1023
992
925
847
772
697
604
514
476
451
447
455
474
504
545
563
566
571
572
570
566
562
590
593
590
589
596
594
589
588
602
616
617
617
618
604
589
585
596
608
617
613
605
598
617
623
623
645
644
645
640
615
601
602
607
621
632
637
631
618
605
611
632
649
653
644
629
615
587
575
601
632
650
669
684
664
641
641
658
682
683
682
685
671
648
641
659
680
693
695
691
675
663
667
682
702
714
709
702
693
675
671
688
702
708
699
708
701
684
672
672
678
673
673
671
653
624
617
637
639
615
590
583
568
556
569
582
576
570
564
562
551
521
504
500
497
498
514
542
544
517
508
517
529
537
519
509
518
527
525
525
543
548
561
568
572
552
536
555
570
574
579
576
560
551
548
564
575
568
557
550
556
570
587
614
595
578
559
565
573
572
584
620
634
627
625
624
606
589
605
621
623
628
624
615
597
597
605
630
652
645
641
635
631
635
626
600
572
568
602
611
615
639
653
653
631
605
587
590
590
609
609
603
620
624
598
601
616
626
640
639
622
613
608
592
618
675
687
648
576
524
545
570
598
631
614
544
477
465
485
507
560
623
626
572
506
479
488
496
547
601
609
552
493
469
461
463
500
532
516
440
371
351
355
370
439
503
508
448
385
371
380
385
418
480
484
434
374
344
385
424
485
563
585
532
465
418
402
417
469
522
518
464
411
397
386
387
421
469
461
399
325
308
306
321
369
419
431
393
348
327
331
347
388
453
464
422
376
361
365
376
434
507
513
466
415
398
409
439
502
578
580
524
459
437
439
456
514
584
590
552
512
495
501
536
605
678
681
632
564
533
549
563
621
680
675
611
552
539
573
616
674
731
722
668
628
586
579
595
627
674
699
671
615
582
563
578
633
692
697
638
584
569
593
619
690
793
864
882
897
909
921
936
954
959
880
742
614
517
460
471
525
598
614
580
541
500
485
509
576
633
638
593
552
528
528
549
595
641
636
585
541
532
533
535
587
636
639
591
553
560
568
575
616
654
634
593
549
540
560
583
620
647
645
598
548
544
552
576
626
658
637
586
562
546
545
582
636
683
679
608
550
550
562
583
633
682
659
610
570
558
557
589
640
677
656
620
580
556
570
608
667
718
716
654
599
590
597
624
696
767
743
677
625
613
614
629
680
726
711
654
614
599
596
610
647
687
683
621
557
537
537
556
594
641
633
564
504
471
455
471
516
554
556
501
446
433
434
449
490
549
544
495
443
416
413
427
480
544
549
490
434
413
426
465
542
592
575
519
469
438
434
467
530
569
554
492
446
430
450
471
529
594
579
518
472
466
465
472
536
598
584
515
468
450
463
501
565
601
571
515
475
466
452
466
536
597
586
516
462
455
467
493
552
596
576
525
480
461
454
469
529
581
551
486
444
439
458
485
557
605
584
511
464
447
446
470
511
534
514
463
441
448
445
462
534
587
568
503
447
417
414
445
521
590
585
524
460
431
431
462
515
569
558
500
456
446
440
450
507
554
538
482
420
403
410
448
530
582
568
508
458
447
448
464
510
556
545
505
481
468
452
455
515
561
547
506
466
449
453
485
541
577
557
487
425
410
447
494
546
590
577
519
460
442
461
500
563
601
572
514
461
430
431
470
537
595
585
528
482
462
452
460
517
570
555
505
469
470
469
482
540
584
571
510
472
468
482
509
560
595
565
493
438
420
436
469
530
573
544
474
437
424
429
458
528
569
552
500
457
454
463
490
537
577
573
521
464
435
477
517
540
564
534
487
452
433
450
500
564
594
563
502
461
453
465
495
566
598
583
523
462
451
463
503
558
595
578
526
484
468
469
522
581
616
593
519
460
439
432
449
525
563
535
488
444
427
430
459
512
550
520
464
440
462
487
556
677
781
825
810
788
781
759
738
725
661
568
467
386
344
323
373
459
483
459
408
376
373
378
412
478
509
474
420
386
370
371
401
475
526
496
427
397
391
415
457
502
541
517
450
417
424
430
452
513
557
532
471
445
428
422
444
509
561
539
474
439
428
442
475
541
586
564
500
459
461
478
503
544
572
548
493
454
452
476
528
602
643
621
552
502
491
490
518
574
605
596
548
500
498
528
568
617
658
635
569
537
537
549
589
646
671
640
586
547
548
553
580
628
655
636
584
537
516
507
527
573
607
580
526
491
483
493
508
538
551
510
450
419
422
423
440
502
524
471
421
394
382
383
415
487
507
450
392
376
375
380
416
477
508
471
411
378
374
383
422
493
527
493
458
430
410
413
437
493
535
500
434
412
422
428
458
520
569
538
468
420
415
433
471
553
601
569
498
462
451
455
479
533
557
522
477
464
452
452
485
541
591
561
478
433
432
449
478
552
591
546
475
445
434
439
489
551
562
527
478
440
440
452
496
568
597
555
496
466
450
441
469
534
567
537
467
446
455
470
497
545
565
527
476
455
444
452
490
544
568
539
479
444
449
464
498
552
570
527
464
436
435
459
487
538
561
529
466
418
416
435
493
557
574
537
500
463
445
455
499
570
613
576
491
459
454
458
490
552
573
541
483
458
458
463
494
551
567
529
474
436
428
454
500
572
607
561
506
484
463
470
516
575
592
545
486
453
444
460
514
564
581
555
492
464
469
479
524
575
580
535
474
458
453
455
490
562
600
564
503
461
466
490
525
583
603
546
484
458
464
462
496
543
540
503
467
446
453
488
535
601
647
594
521
471
438
444
501
572
600
561
493
460
458
469
520
573
591
550
471
428
429
461
502
540
555
522
493
485
503
501
538
597
607
568
519
490
485
502
544
607
646
608
529
484
466
477
517
590
637
605
541
499
486
495
544
606
629
559
495
494
513
528
563
604
600
544
507
518
510
521
589
695
765
783
782
795
814
806
797
785
726
603
466
361
297
275
322
391
400
349
308
296
306
315
346
418
450
398
350
325
322
333
392
463
452
401
356
327
329
339
391
449
441
385
334
306
297
292
324
400
415
361
321
303
283
275
341
413
422
383
310
292
298
322
376
420
422
391
325
292
291
254
264
351
399
387
331
302
278
283
291
308
309
279
231
195
195
209
263
338
344
282
212
183
188
217
277
331
338
302
254
242
253
265
309
370
384
332
274
270
291
331
387
446
448
401
339
284
274
303
366
432
444
399
333
289
267
259
316
380
397
366
316
288
284
289
333
397
395
341
295
277
293
315
353
410
428
369
313
303
318
346
399
456
464
429
374
344
342
377
428
506
513
483
430
401
412
448
526
582
569
521
488
475
469
481
531
577
581
546
500
487
493
519
574
617
630
589
544
510
500
542
615
675
692
641
556
538
549
559
597
658
672
639
590
561
552
554
600
669
651
583
551
545
549
568
617
681
690
628
574
556
559
596
658
701
705
672
614
573
570
597
656
702
700
668
625
608
591
591
653
709
711
668
610
568
552
565
623
695
705
651
611
590
587
595
652
719
723
654
591
571
574
600
661
712
717
676
612
580
581
588
633
689
693
655
600
582
591
604
643
693
707
649
567
535
557
582
628
686
713
680
625
581
594
615
662
699
681
620
574
557
559
579
643
696
678
613
553
533
548
582
634
685
683
640
598
578
560
567
650
724
727
666
604
583
600
616
639
675
668
619
557
526
530
563
614
665
669
624
575
548
556
573
612
659
670
640
582
561
568
593
654
694
687
629
578
573
588
600
620
672
705
640
581
561
563
561
609
659
648
592
554
548
553
572
616
659
663
620
572
544
551
578
635
682
666
619
578
562
565
571
618
680
674
599
535
525
532
553
605
650
644
596
559
553
566
591
621
649
653
600
540
544
574
597
628
657
642
584
536
517
507
509
556
625
618
562
525
520
530
553
595
635
631
603
585
611
678
766
875
975
1013
945
828
730
654
603
582
560
520
463
414
407
420
456
502
547
550
512
476
455
448
464
517
574
570
518
466
464
481
483
549
611
600
539
500
501
500
539
595
636
618
542
497
484
490
532
601
650
627
562
514
502
510
528
586
639
628
569
523
508
516
552
620
672
658
595
549
531
522
543
610
674
678
625
561
541
561
581
628
662
659
616
563
525
522
555
629
688
683
625
578
568
579
605
657
700
696
637
594
590
612
647
693
714
687
643
614
603
614
631
682
719
692
621
569
563
563
563
599
635
617
557
512
493
493
514
551
589
564
500
454
433
431
440
497
550
535
480
434
414
400
419
474
503
491
468
437
412
412
431
488
514
495
452
413
396
419
461
513
550
545
499
458
441
423
435
504
553
539
476
423
418
436
469
538
586
574
500
444
426
429
449
518
572
547
484
445
438
446
457
499
550
550
502
457
445
456
481
530
568
551
481
431
417
418
439
509
564
546
499
457
422
428
458
504
538
526
469
439
441
449
458
503
566
568
506
448
423
431
468
525
551
528
479
444
436
446
478
536
583
566
505
463
449
433
452
528
577
555
487
445
421
426
457
529
582
561
512
471
441
443
468
533
575
556
501
464
445
438
467
532
572
551
495
474
470
484
510
556
584
561
507
461
450
455
489
540
576
548
489
453
449
461
503
553
576
528
471
452
479
499
526
578
599
579
538
507
499
502
531
575
589
557
498
468
471
477
502
558
596
578
530
487
486
497
535
592
610
585
526
477
462
469
507
571
601
571
515
472
456
475
508
567
607
581
516
472
456
457
481
544
591
563
502
469
465
476
508
565
603
576
502
456
443
437
463
526
567
563
508
466
445
446
484
555
590
554
496
456
435
430
464
530
550
522
478
467
487
492
493
530
559
538
481
437
432
446
475
540
576
542
496
461
442
460
490
553
595
576
514
482
465
458
503
559
584
564
529
497
485
482
496
547
570
545
483
442
420
413
444
514
548
509
452
425
433
431
454
522
582
569
535
549
612
683
782
894
943
888
779
683
596
526
495
504
495
454
385
342
330
333
385
457
508
483
426
398
376
374
406
484
532
499
443
396
385
390
428
500
543
520
457
407
388
406
449
520
551
524
473
432
426
439
471
542
577
542
471
443
450
451
480
543
569
541
501
476
460
457
482
551
589
570
510
480
486
482
501
563
601
577
516
476
460
464
517
604
640
616
550
503
491
507
558
626
662
628
563
518
505
522
571
632
669
644
584
551
545
559
592
656
685
645
580
544
548
567
598
658
683
653
587
517
494
506
543
588
609
566
500
458
441
455
484
544
562
517
455
420
415
420
447
494
510
469
398
355
350
372
423
482
515
479
403
355
344
364
426
509
543
500
427
400
413
422
464
528
550
508
440
414
421
431
468
532
543
496
439
426
444
457
481
536
563
512
451
425
430
432
473
555
595
548
474
462
454
462
497
561
600
547
474
423
427
462
494
546
566
523
467
461
481
477
507
573
601
546
479
459
461
469
503
556
569
534
484
469
460
456
482
536
553
527
489
466
462
474
512
560
570
527
481
465
474
483
526
574
571
531
473
450
454
461
479
531
555
515
450
417
404
420
469
549
580
530
461
433
443
473
548
644
699
697
663
632
632
640
679
725
754
733
690
684
676
670
698
762
788
742
674
634
608
623
691
756
776
715
638
600
595
612
657
735
762
716
643
609
599
606
643
717
759
707
652
659
674
693
729
777
801
768
727
724
750
786
826
873
882
827
772
746
767
787
811
840
848
776
700
666
667
674
697
728
761
732
663
623
598
587
601
641
658
631
564
519
498
483
521
580
599
559
481
434
422
388
413
469
495
468
445
429
414
427
466
519
526
492
455
461
484
524
582
625
630
607
572
546
536
527
547
580
583
522
454
440
447
452
470
499
487
432
380
356
361
381
422
448
434
380
324
308
322
343
385
437
415
353
314
302
292
297
340
420
424
369
337
309
285
301
353
449
506
484
443
432
435
448
489
531
531
488
444
458
503
556
648
740
765
706
576
437
352
279
243
228
190
116
63
35
22
25
77
125
150
146
112
96
71
57
128
211
218
166
123
115
120
130
169
222
213
166
112
75
77
102
165
244
270
226
181
159
148
164
221
284
308
278
236
226
223
227
286
360
372
322
269
244
253
266
303
354
353
305
268
254
260
271
315
383
411
391
331
275
271
307
372
436
447
404
349
333
345
371
403
446
458
424
390
366
377
414
464
526
535
485
422
403
398
420
476
523
524
478
430
421
430
420
473
533
532
488
442
406
384
390
433
486
479
421
360
350
353
350
388
461
462
390
327
292
271
281
347
406
421
363
303
281
289
314
354
402
408
365
313
296
307
331
388
443
454
404
358
334
327
334
372
418
443
444
422
394
379
383
435
494
492
442
401
382
390
420
481
519
523
477
431
418
411
426
485
544
554
501
449
424
413
414
494
588
596
547
499
453
427
459
533
604
608
544
486
462
473
492
537
586
590
552
488
456
464
507
569
615
622
573
517
492
478
491
554
614
612
550
493
466
457
480
540
579
572
512
463
459
478
532
580
623
619
558
489
460
455
466
526
581
589
543
494
473
471
484
529
580
591
541
488
476
468
483
543
593
604
563
506
461
441
485
551
608
607
542
493
464
449
473
541
610
598
545
482
453
454
463
509
560
572
536
489
468
479
501
553
593
590
518
492
503
507
497
531
577
569
527
480
466
482
501
552
619
603
536
475
451
458
499
560
605
605
563
517
509
513
517
569
623
610
564
512
475
470
506
572
624
608
554
507
489
484
496
553
610
608
572
542
525
526
541
589
616
593
556
514
494
494
522
570
628
624
553
506
521
517
531
583
640
638
569
523
503
504
524
572
636
646
589
532
514
530
551
601
654
638
572
527
519
520
545
601
646
647
605
556
532
534
556
611
645
629
580
513
487
500
515
566
609
600
550
494
474
490
526
573
627
634
598
586
618
696
796
916
992
973
887
794
719
655
596
586
587
537
451
387
366
386
423
498
555
549
497
456
431
429
456
513
553
525
465
420
414
433
458
521
577
560
496
457
461
472
483
529
574
568
513
466
455
475
512
566
607
587
550
506
483
464
478
536
593
591
528
479
470
487
520
584
631
608
534
490
485
509
534
590
640
630
556
498
498
531
569
616
656
655
603
551
530
532
555
618
667
646
586
560
571
572
583
647
689
668
620
585
573
581
610
674
724
697
632
588
566
576
607
665
714
677
602
539
516
519
547
605
643
624
561
498
475
475
505
582
610
564
504
464
437
423
442
508
572
551
480
431
419
431
456
498
539
524
458
419
404
412
430
482
536
531
470
431
417
418
459
526
553
525
509
477
450
452
481
541
568
539
487
462
461
468
490
547
579
550
486
437
420
422
465
534
565
549
496
455
444
444
469
538
585
569
505
456
454
473
493
556
617
586
508
456
433
449
481
538
570
548
497
454
437
449
493
550
584
539
476
428
422
434
460
524
560
535
484
445
450
486
511
553
577
550
488
452
433
428
444
522
576
544
484
471
486
504
529
572
586
560
525
508
509
524
554
571
585
570
545
533
522
525
544
565
580
586
571
565
569
545
538
561
581
543
490
460
460
487
476
471
478
466
459
459
451
444
458
473
453
449
443
437
439
437
448
459
460
461
460
465
470
483
465
427
390
399
410
421
420
393
384
389
390
395
409
412
401
399
424
429
417
409
403
400
400
416
431
440
434
423
425
416
425
439
451
439
431
425
437
454
464
457
456
454
461
472
475
485
485
486
487
481
481
494
515
523
519
520
518
524
536
534
523
518
518
526
526
516
517
526
540
544
531
528
547
551
542
551
570
564
549
545
540
540
533
530
540
545
540
543
542
535
554
572
573
566
557
560
571
579
585
586
584
598
616
611
586
558
554
556
572
581
582
594
598
586
577
579
582
581
570
558
556
553
550
545
545
553
558
561
547
542
541
546
570
588
569
561
549
537
542
566
601
637
681
758
832
881
902
905
876
814
740
658
586
501
442
424
436
440
451
465
470
461
453
474
487
497
520
521
501
489
487
489
501
524
531
516
491
487
498
515
511
497
482
486
502
501
488
482
490
514
529
532
517
524
533
531
515
514
523
539
538
519
502
511
530
545
570
575
558
531
527
557
575
574
566
550
543
555
562
562
564
558
559
564
558
547
550
571
591
605
605
598
593
580
571
600
624
628
611
598
589
601
604
614
629
625
613
621
634
624
619
646
658
643
642
642
631
605
620
640
635
633
616
602
596
579
564
557
550
539
535
528
526
505
497
499
492
477
476
485
477
463
470
474
465
458
455
468
476
457
452
452
457
472
474
469
462
458
445
448
467
486
487
487
486
470
461
477
494
489
480
478
471
459
463
503
522
500
502
513
517
503
491
486
498
525
540
539
535
519
510
516
519
513
520
517
491
481
496
509
529
554
530
514
499
481
496
524
538
512
493
496
488
466
468
489
509
531
552
547
532
521
513
523
535
537
534
547
567
523
497
520
567
553
522
513
503
463
442
472
501
508
497
494
461
381
350
393
452
476
470
461
420
360
358
417
502
549
551
523
492
450
447
511
591
603
613
616
551
455
414
462
532
557
550
539
483
413
390
439
518
544
560
564
501
413
387
446
515
550
556
541
482
413
402
452
520
560
562
538
493
407
372
431
497
533
557
565
515
426
423
484
520
512
503
492
425
373
380
445
505
515
505
489
444
382
365
410
468
496
495
484
437
374
377
442
516
536
516
480
430
363
355
420
496
541
558
538
462
386
370
439
519
538
521
529
485
432
436
507
564
556
537
535
489
416
409
482
562
616
624
591
503
413
384
447
532
591
587
546
468
413
419
473
530
557
561
563
496
416
400
449
515
538
532
512
453
395
419
521
596
578
528
510
448
388
388
458
526
551
547
519
473
424
429
505
572
589
576
560
511
441
426
509
598
619
609
602
539
458
456
520
582
611
613
594
526
442
434
507
561
549
537
532
480
411
400
451
522
567
586
586
540
472
480
558
641
714
792
861
854
798
777
796
791
744
662
553
443
346
309
359
410
437
464
480
426
360
362
429
489
523
547
544
474
398
396
464
555
574
565
540
480
421
402
464
550
608
602
555
461
401
425
504
576
601
584
569
502
421
416
487
564
597
612
578
504
454
472
557
621
611
599
592
529
459
459
535
611
661
670
628
527
460
466
541
613
640
641
618
542
479
496
583
656
688
676
633
565
503
525
604
666
691
685
660
592
531
545
618
689
717
711
677
606
547
572
638
677
676
673
658
583
515
524
589
650
672
657
622
538
464
469
560
623
620
597
551
477
416
425
485
533
549
533
495
414
353
375
448
512
524
497
464
399
352
364
428
477
491
499
493
427
370
390
475
545
551
525
482
401
344
352
433
509
527
511
494
432
370
376
442
521
559
555
522
444
384
404
482
537
558
575
582
518
431
435
526
566
552
536
516
461
406
419
496
558
579
576
554
480
425
442
510
565
571
556
525
446
381
403
480
532
543
551
532
461
400
408
470
515
553
570
547
462
399
420
495
555
595
605
566
468
389
404
477
546
555
557
533
461
411
427
496
556
561
558
534
460
399
416
503
566
579
561
529
462
413
428
499
552
568
553
529
463
411
442
527
585
588
565
537
471
413
450
522
578
594
600
574
490
433
443
513
576
586
586
571
505
440
457
544
582
588
580
551
475
417
442
518
562
574
569
560
488
422
441
508
564
579
570
516
431
389
438
524
574
589
595
581
502
416
407
479
553
587
583
545
465
422
454
522
571
571
569
545
474
418
437
525
572
580
577
549
468
422
454
518
553
590
590
564
490
422
431
497
535
553
571
546
463
417
452
518
566
579
579
557
470
399
422
503
567
578
571
537
459
407
439
532
595
588
571
548
480
426
440
510
561
576
569
543
470
419
460
546
604
611
614
601
529
451
460
534
590
611
604
567
500
479
506
558
585
576
566
537
463
410
438
515
560
560
550
511
417
356
396
473
538
561
559
535
454
402
451
556
656
730
777
800
770
760
800
835
817
753
660
546
411
319
329
402
462
480
494
477
400
361
384
448
516
508
480
466
420
384
388
431
475
498
513
488
419
380
412
477
519
537
538
504
429
379
411
478
525
538
520
477
411
369
411
508
555
554
537
493
405
359
404
494
549
576
573
514
425
385
431
517
558
560
559
534
465
415
444
526
601
625
619
590
501
450
490
561
609
632
628
594
527
489
517
573
597
603
609
580
512
470
507
592
652
635
610
585
534
492
531
599
632
625
621
594
510
466
518
597
619
621
606
556
454
401
446
521
561
559
543
495
414
370
411
476
504
508
500
468
386
337
377
450
479
474
478
450
376
336
361
429
484
493
488
451
380
341
372
429
475
493
488
439
361
328
364
435
485
513
527
472
387
361
428
494
518
521
519
481
400
371
429
507
534
524
516
487
416
368
417
507
559
579
586
533
436
393
425
501
567
591
561
492
412
383
429
513
559
559
559
518
434
397
438
512
558
540
527
501
421
383
445
536
567
562
552
506
416
399
474
566
595
568
543
493
426
408
453
534
580
576
555
533
488
464
482
514
532
554
585
549
462
421
471
548
572
560
551
517
462
431
474
537
570
594
603
573
485
423
447
527
581
600
595
548
467
438
501
577
609
602
592
551
483
452
482
541
575
592
597
540
460
427
485
563
576
578
590
549
466
413
447
531
567
566
555
507
434
416
464
535
572
577
574
529
455
438
482
543
563
575
602
559
468
421
446
508
551
573
572
510
416
384
427
492
555
603
590
525
439
412
454
529
574
571
541
496
424
390
439
515
548
545
541
505
424
397
450
532
557
548
534
507
429
384
423
496
529
552
558
499
415
413
472
551
582
581
561
509
432
404
461
544
599
606
571
506
434
414
482
575
602
597
587
539
447
393
432
496
535
547
540
492
409
382
444
535
573
572
565
513
437
412
461
544
588
584
572
529
447
419
469
553
596
602
594
514
407
374
438
509
535
544
537
490
412
373
424
507
542
544
539
477
399
395
478
587
644
700
769
789
767
762
801
834
792
711
629
511
387
311
330
383
430
450
441
398
323
318
395
479
503
496
484
425
336
309
361
434
471
500
516
464
358
322
398
488
519
514
523
478
393
374
438
508
549
546
522
461
389
368
422
518
574
594
597
540
453
416
463
538
579
592
576
526
456
451
495
544
566
569
568
516
438
439
503
580
619
644
621
551
475
450
512
605
649
661
642
580
509
505
568
641
669
672
672
622
545
520
584
646
672
689
687
611
543
547
618
687
713
709
686
619
538
521
562
623
675
697
685
600
506
482
507
552
582
577
555
499
419
399
450
508
530
520
496
457
427
433
493
560
558
543
530
469
409
407
476
522
529
529
511
462
401
399
479
565
588
588
562
494
426
425
497
553
554
560
552
492
418
414
484
541
562
566
545
490
434
439
515
587
590
593
594
534
453
453
518
572
592
600
579
498
423
421
478
540
559
567
558
496
419
418
490
558
576
562
553
498
422
415
475
519
538
546
532
471
401
390
443
517
556
562
545
475
428
427
467
522
546
544
527
471
402
397
461
534
582
573
549
483
412
408
485
562
590
581
565
500
417
418
486
557
601
610
586
507
442
463
524
569
576
571
556
484
405
401
477
555
578
583
561
485
395
374
436
513
546
557
562
483
397
412
493
547
548
544
526
473
402
391
450
530
565
562
553
507
436
427
479
535
555
555
550
487
416
421
484
542
556
562
545
466
406
445
516
569
569
560
546
482
414
412
474
539
564
567
524
453
396
433
520
560
565
566
545
468
395
408
493
558
566
563
552
492
419
424
481
542
567
563
537
482
426
422
478
521
533
558
546
483
422
436
502
573
594
598
592
536
457
451
518
584
598
586
541
486
435
447
519
595
616
611
589
516
445
452
530
605
613
597
585
514
449
455
517
567
579
574
552
475
416
427
488
547
574
567
534
445
363
371
453
529
578
595
591
557
538
611
762
896
949
931
862
732
588
495
476
471
447
419
369
297
240
274
363
433
473
491
484
417
356
373
449
502
519
538
521
434
368
388
448
498
532
556
534
451
384
403
476
526
540
533
514
440
366
381
474
549
572
568
551
483
425
416
468
522
551
561
549
470
406
424
493
565
592
579
547
493
445
446
506
563
584
579
569
514
447
450
531
603
617
601
574
503
458
489
577
632
624
623
624
557
480
499
590
650
663
651
620
562
514
530
599
655
688
700
683
609
532
529
590
631
631
621
599
521
457
474
548
595
604
601
564
468
399
431
499
542
543
528
495
413
348
357
421
503
540
518
473
394
314
316
374
429
453
462
459
401
335
349
424
486
514
518
499
414
343
365
433
486
504
497
471
411
357
366
445
505
525
529
502
425
363
386
462
528
542
535
513
436
374
404
494
554
566
546
513
442
399
432
507
552
566
562
531
451
392
409
490
553
564
544
522
463
406
430
495
561
570
554
506
409
374
431
511
551
549
542
506
432
393
434
505
559
567
564
542
466
404
424
495
544
567
574
540
444
378
414
480
530
551
559
529
456
399
423
513
581
591
593
574
485
408
435
510
551
551
544
522
443
390
420
497
555
564
571
544
462
401
429
502
546
553
540
523
466
415
448
517
565
573
574
551
463
406
445
519
545
553
558
547
461
402
428
494
546
562
560
532
445
395
443
532
583
586
545
492
419
387
448
524
554
559
561
543
461
400
432
536
577
577
597
562
456
406
444
499
553
572
572
542
454
397
429
511
561
569
573
551
459
398
428
507
562
582
586
539
469
433
457
528
568
570
559
511
441
416
458
533
580
601
595
546
455
399
430
505
566
609
615
570
467
410
441
533
609
622
611
551
447
391
426
524
599
628
619
566
485
459
499
569
605
613
610
564
472
419
446
521
581
581
567
535
448
386
400
461
508
526
526
478
404
384
454
583
692
771
834
858
807
758
756
768
746
667
572
472
371
307
326
390
444
464
463
418
342
303
331
412
469
487
486
449
372
316
355
438
484
497
505
456
372
357
417
473
493
503
505
489
415
361
397
468
515
536
519
482
412
382
425
504
549
533
521
479
416
396
447
528
563
552
528
513
442
399
440
515
553
574
581
547
461
414
447
526
574
578
583
539
454
408
458
538
601
625
619
575
494
458
505
596
644
637
619
574
497
468
513
593
631
634
642
608
540
509
569
620
640
649
638
584
513
475
520
594
629
639
630
572
463
418
473
550
579
562
536
489
420
388
430
500
541
551
544
517
452
392
416
485
517
513
506
457
379
347
406
466
479
466
470
447
374
329
374
455
491
502
489
454
379
333
380
470
516
517
508
468
389
348
400
471
512
515
503
454
381
356
414
494
532
539
537
493
399
348
394
470
515
517
512
472
398
376
433
524
566
555
525
473
392
351
400
478
514
514
509
472
414
390
428
485
524
530
518
477
419
399
438
493
512
518
534
492
406
385
447
512
549
541
525
480
417
397
428
510
555
550
536
478
407
391
440
507
546
555
551
503
426
396
455
541
574
560
530
478
413
390
442
523
567
561
545
492
420
403
475
560
595
600
586
522
439
407
453
535
578
566
562
522
453
426
480
562
596
590
578
539
456
414
458
533
582
606
592
524
433
425
499
557
579
577
568
516
433
421
480
547
572
577
578
527
428
393
457
543
595
608
591
530
446
417
474
562
593
571
543
506
423
405
483
555
588
589
574
525
455
436
494
581
587
575
568
524
451
440
504
569
572
558
551
497
427
404
467
551
580
583
571
520
441
427
476
545
582
598
583
522
452
428
488
552
568
565
561
529
466
461
504
553
591
602
591
530
454
444
482
548
577
578
590
549
463
440
499
560
580
576
580
534
457
454
502
574
615
619
593
525
433
398
459
554
599
613
596
528
439
431
494
571
602
603
581
500
426
434
499
560
588
572
541
473
406
425
542
687
796
876
916
875
804
763
770
772
709
633
552
420
311
300
375
455
490
498
486
434
383
387
437
497
521
549
534
471
397
367
420
490
529
541
513
434
366
365
440
520
538
541
528
453
365
346
409
481
504
511
483
437
397
401
466
525
515
487
488
452
395
380
444
529
553
540
525
470
393
378
448
517
544
553
549
493
424
417
487
569
603
597
557
494
421
416
488
564
594
604
598
534
454
456
535
603
622
624
623
559
498
515
601
698
737
750
774
731
638
617
662
702
700
685
660
582
482
437
482
541
551
537
504
417
348
341
376
395
386
366
347
286
224
221
282
349
381
383
373
323
270
293
354
383
392
392
392
338
276
281
358
424
437
437
420
368
322
320
370
430
450
453
436
384
336
337
390
445
463
446
437
410
388
395
436
500
519
494
466
422
397
415
459
501
496
496
496
458
406
419
486
537
539
526
503
448
412
423
480
536
551
551
526
473
436
466
522
545
556
577
573
527
469
457
496
543
567
556
525
477
453
462
504
535
532
539
536
515
493
484
521
562
582
589
587
532
506
519
540
559
570
569
551
501
464
477
525
569
593
594
577
524
477
475
521
576
598
585
571
541
496
496
546
586
588
584
583
552
505
499
527
575
581
578
566
526
479
469
509
561
586
588
575
532
494
499
552
597
610
605
595
558
496
483
522
549
553
548
533
500
475
488
537
580
600
592
562
514
491
512
554
577
579
576
555
520
488
508
556
581
577
586
576
514
487
509
549
573
576
572
569
535
504
507
538
559
570
575
554
512
486
498
544
595
597
589
577
532
479
485
553
609
635
626
587
526
488
509
551
578
581
574
548
492
463
486
534
563
579
587
578
539
492
501
522
545
569
591
589
538
498
508
548
586
597
595
583
545
510
541
582
581
578
594
585
541
520
540
573
597
602
587
563
534
515
532
563
586
571
567
550
502
473
495
548
573
564
556
558
521
494
519
559
578
575
563
567
564
600
686
786
868
916
931
902
809
707
637
582
535
485
431
380
343
329
361
422
478
495
507
505
459
433
449
489
512
497
503
490
461
438
456
497
519
523
533
524
483
448
462
500
523
536
536
531
501
475
477
509
530
537
537
534
498
472
490
541
573
563
548
522
497
494
500
530
554
556
553
534
512
493
497
537
569
580
579
562
527
502
509
529
558
576
579
561
523
504
535
585
612
621
609
582
547
535
581
642
654
639
617
601
578
563
586
620
620
618
625
608
599
591
608
625
636
639
619
600
567
550
562
588
593
565
535
517
481
460
465
492
504
501
494
475
438
401
396
425
450
454
450
443
398
370
387
426
459
463
457
437
406
387
394
423
451
466
450
431
391
365
389
446
473
465
458
450
410
384
392
432
454
467
485
484
458
435
447
472
485
477
476
469
442
433
458
497
503
503
504
488
449
429
453
486
505
508
501
491
455
412
420
459
491
515
523
508
488
478
481
517
532
509
486
475
445
422
438
466
489
499
500
489
464
444
445
480
489
486
480
472
437
422
475
519
511
508
520
500
459
446
457
476
499
515
521
502
474
455
466
491
498
495
494
484
466
460
491
513
519
512
497
468
416
400
438
477
490
491
494
483
460
455
489
514
500
496
507
503
490
467
468
481
491
497
500
487
456
445
463
499
504
484
474
470
461
447
462
483
481
469
463
459
438
434
475
513
508
500
499
503
482
453
456
477
482
485
476
429
415
426
445
486
515
508
480
448
409
409
450
495
513
497
472
440
405
398
411
448
484
499
481
444
407
403
412
428
444
448
454
436
417
442
454
465
463
456
463
429
375
353
373
388
397
420
452
445
391
368
389
435
467
470
464
435
394
365
404
451
456
453
450
417
369
351
376
413
441
465
477
433
359
330
346
395
417
402
390
371
345
347
380
409
410
390
357
317
279
267
288
310
305
289
312
293
254
240
256
274
267
251
249
238
223
229
259
289
286
259
255
239
204
198
235
269
280
275
268
270
254
288
355
457
548
589
615
619
558
506
494
475
438
403
344
271
210
204
241
296
334
352
363
361
333
329
381
448
479
504
517
477
397
373
418
471
497
519
527
509
455
435
462
487
496
495
494
483
472
476
488
486
474
477
478
446
403
394
427
468
463
458
474
456
418
400
421
458
453
440
444
425
401
391
431
482
519
549
538
496
440
392
401
435
454
455
454
419
385
354
391
440
454
461
451
404
369
391
424
433
418
423
411
360
305
314
358
428
455
462
471
426
364
370
448
488
491
499
504
490
474
467
480
506
514
499
493
500
487
468
471
463
429
426
430
417
412
427
445
448
416
384
344
341
414
489
449
370
353
390
420
390
280
198
203
210
193
166
174
171
112
63
75
108
128
116
78
50
33
31
45
66
81
96
101
71
45
74
108
129
139
149
170
178
167
179
169
178
207
240
257
277
300
321
338
324
316
355
390
372
365
367
357
358
387
416
437
433
426
429
441
446
434
444
471
487
485
498
538
574
586
611
656
681
685
681
669
672
672
691
732
756
748
734
749
779
814
830
839
845
840
816
823
867
921
955
961
940
931
930
922
924
930
941
916
875
901
949
923
846
781
819
896
900
871
871
882
895
913
931
958
977
983
988
980
988
1023
1023
1023
1023
1023
1023
1023
1023
1023
1023
1005
944
918
923
963
989
970
941
922
902
899
918
932
970
979
966
912
886
915
964
1002
994
976
974
979
1017
1023
1023
1023
1023
1000
975
980
994
976
977
977
999
982
938
897
889
893
906
915
903
881
870
891
892
881
859
840
843
877
868
859
831
818
795
751
739
762
783
789
786
789
778
773
760
764
758
737
704
696
707
718
748
770
753
729
720
711
720
722
726
737
726
701
699
713
732
724
711
707
684
669
663
689
709
714
684
659
650
641
644
655
650
682
717
741
710
667
600
556
574
605
619
620
582
557
574
573
579
578
571
574
563
536
503
473
464
460
446
417
398
393
355
333
344
355
332
326
358
392
377
365
364
365
390
371
340
331
349
375
407
436
473
547
613
673
720
762
801
797
742
640
545
471
418
371
340
318
326
349
348
342
344
340
334
342
353
361
362
374
390
391
383
367
363
373
363
371
409
422
438
440
422
407
403
423
457
468
466
472
486
477
473
468
453
449
475
492
506
513
510
517
542
563
580
589
575
562
576
609
618
598
579
582
580
573
579
586
571
573
576
599
624
611
610
619
625
634
647
659
660
651
649
661
669
650
628
628
677
709
713
707
695
671
666
684
703
699
701
707
701
707
703
690
682
680
685
686
677
664
664
676
677
682
684
664
626
607
621
639
622
593
594
599
580
561
542
529
525
519
517
498
488
483
489
508
528
531
513
507
504
512
537
535
514
500
504
501
477
452
460
498
521
527
518
517
502
481
474
501
524
557
554
552
548
543
539
554
558
543
537
507
476
478
503
525
531
520
531
536
507
484
505
521
533
535
533
513
495
485
489
505
501
504
523
516
495
503
523
542
547
533
523
516
506
510
520
536
547
546
562
571
541
515
513
535
556
546
547
546
531
517
494
508
547
567
568
568
562
554
557
573
592
607
600
583
563
555
574
604
619
619
607
599
583
567
576
600
592
595
597
581
561
551
565
574
574
568
556
553
556
577
584
586
584
575
566
576
566
536
536
536
543
553
556
542
522
511
536
576
583
581
577
564
556
554
553
558
552
542
542
539
517
519
521
507
509
524
546
547
518
517
543
545
536
527
517
508
510
516
524
533
547
539
526
526
509
502
507
514
523
535
532
519
495
482
499
530
556
530
516
503
477
460
474
502
503
500
497
495
466
447
453
478
510
526
518
478
437
433
448
467
494
519
524
509
485
446
451
466
478
486
488
487
474
478
483
485
481
480
477
474
455
453
493
518
511
493
486
479
488
509
489
467
426
407
401
388
381
389
412
465
479
468
476
471
437
435
451
465
485
502
532
573
618
691
785
849
867
839
785
734
671
591
487
385
348
350
358
384
394
409
429
432
440
458
468
462
451
460
489
500
502
506
480
456
439
457
467
476
513
512
494
464
460
484
501
521
501
489
495
498
476
474
501
548
554
525
514
510
476
491
532
535
554
548
532
519
506
491
515
527
534
556
566
552
553
533
540
570
608
640
664
656
609
603
626
644
671
667
640
632
601
577
610
650
651
631
633
658
675
668
671
698
718
741
746
746
735
721
730
787
817
779
727
653
597
585
640
687
691
617
607
668
712
669
617
584
590
583
565
529
542
542
524
513
512
536
523
421
369
394
453
509
499
440
375
378
433
450
380
289
222
219
221
277
401
482
433
294
201
179
191
209
260
271
216
129
69
38
21
12
7
5
25
626
1023
1023
1023
1023
1023
637
333
176
95
52
29
16
10
6
4
3
2
2
1
1
1
1
1
1
1
1
1
1
1
1
1
1
1
1
1
1
1
1
1
1
1
1
1
1
1
1
1
1
1
1
1
1
1
1
1
1
1
1
1
1
1
1
1
1
1
1
1
1
1
1
1
1
1
1
1
1
1
1
1
3
84
217
343
447
519
608
710
791
849
898
935
969
971
985
1023
1023
1023
1023
1023
1023
1023
1023
1023
1023
1023
1023
1023
1023
1023
1023
1023
1023
1023
1023
1023
1023
1023
1023
1023
1023
1023
1023
1023
1023
1023
1023
1023
1023
1023
1023
1023
1023
1023
1023
1023
1023
1023
1023
1023
1023
1023
1023
1023
1023
1023
1023
1023
1023
1023
1023
1023
1023
1023
1023
1023
1023
1023
1023
1023
1023
1023
1023
1023
1023
1023
1023
1023
1023
1023
1023
1023
1023
1023
1023
1023
1023
1023
1023
1023
1023
1023
1023
1023
1023
1023
1023
1023
1023
1023
1023
1023
1023
1023
1023
1023
1023
1023
1023
1023
1023
1020
1022
1023
1023
1017
1012
1023
1011
959
917
889
852
817
783
778
774
747
730
763
757
731
711
705
696
688
673
658
654
656
657
697
769
835
912
960
935
900
870
807
749
699
641
590
502
438
404
440
473
487
498
511
498
472
455
446
438
461
477
483
481
470
440
432
436
432
434
437
472
503
506
453
404
430
502
514
485
453
454
479
489
468
471
466
444
437
456
499
534
528
495
464
454
453
462
456
480
528
544
548
531
506
484
497
536
551
534
514
520
550
530
531
538
531
551
570
562
534
522
547
575
594
606
624
624
607
582
590
613
628
661
623
574
558
585
641
705
700
641
642
660
647
637
664
672
677
676
671
652
633
626
621
632
645
637
643
629
578
536
527
536
527
489
490
489
489
478
469
468
484
478
434
390
374
387
418
428
415
411
414
420
418
433
465
469
428
416
428
427
376
353
379
408
399
397
435
440
424
419
463
514
526
520
516
488
476
510
509
494
470
476
487
462
465
475
478
475
467
474
489
488
475
460
470
474
480
506
514
475
441
469
490
496
478
460
453
449
449
458
446
439
442
458
482
454
433
438
447
457
466
476
473
454
431
447
459
454
464
452
438
416
391
400
419
452
479
494
490
465
447
439
459
483
484
481
493
462
426
411
414
427
435
444
451
447
438
423
424
443
484
470
429
402
398
415
440
440
430
413
389
383
391
433
468
468
473
463
442
435
425
415
425
442
443
449
464
451
434
416
426
427
439
457
458
443
425
430
464
466
458
466
473
447
427
415
432
441
454
475
478
448
438
446
453
435
434
459
466
467
448
420
425
463
488
493
472
454
432
421
434
450
468
484
481
470
443
429
435
441
453
461
456
427
416
436
465
473
476
471
473
453
430
454
474
490
496
480
471
459
462
481
486
492
494
487
507
521
531
531
524
511
510
511
486
472
486
467
490
501
487
495
500
473
438
425
430
453
477
488
503
494
469
455
454
465
498
534
568
621
685
766
839
888
874
807
711
591
480
399
384
377
350
335
319
317
323
345
368
400
400
398
420
454
461
456
465
469
459
456
448
443
436
432
443
459
451
452
467
463
457
473
470
451
451
469
486
472
477
483
465
499
518
502
491
480
487
500
505
514
535
530
504
495
490
487
499
513
529
540
531
523
501
490
499
513
508
509
533
536
520
516
517
536
555
559
571
569
568
585
608
601
577
578
574
553
551
556
604
651
648
631
636
630
601
605
611
624
622
620
629
620
623
622
592
562
594
620
616
606
597
593
589
561
525
517
504
482
472
488
505
506
494
491
477
461
438
411
428
450
437
428
414
398
386
395
401
414
424
435
433
426
424
418
441
444
446
464
466
419
407
433
452
465
473
466
451
420
427
484
502
473
461
456
455
438
429
436
445
465
476
474
476
483
461
439
436
462
490
493
465
430
404
412
434
451
474
481
475
427
415
410
426
473
492
495
490
452
430
422
423
421
416
422
431
422
411
409
437
449
464
486
479
447
425
415
431
424
420
438
445
427
420
406
416
433
455
468
462
430
410
416
425
439
460
453
422
408
413
433
449
474
474
460
452
436
425
420
427
439
453
469
463
450
440
429
428
440
449
456
460
421
391
397
435
444
431
437
445
440
426
428
442
435
429
420
439
463
455
459
448
422
423
435
426
422
422
436
456
450
454
468
449
428
429
433
438
447
450
433
420
414
425
459
487
484
452
428
435
431
416
415
432
441
438
432
426
432
430
429
436
441
445
454
452
443
445
463
468
468
453
449
453
433
419
437
460
461
471
469
444
417
420
437
443
437
462
458
450
449
433
448
474
476
466
470
476
471
449
466
502
518
512
488
472
455
451
449
461
457
446
452
456
435
421
419
405
415
443
445
434
438
446
470
529
608
675
735
789
809
799
778
734
666
576
495
439
371
330
317
319
332
351
358
351
348
358
367
379
391
398
393
358
329
366
401
405
396
395
395
393
373
381
397
419
446
460
448
450
438
400
391
393
402
411
409
396
375
394
430
440
424
411
416
417
415
416
420
419
418
446
447
436
427
441
455
451
447
428
416
430
439
447
457
489
481
454
458
470
470
473
504
515
503
485
490
496
491
495
509
525
523
529
536
543
541
527
537
556
562
553
548
588
578
553
535
549
568
557
563
564
538
516
520
535
517
496
493
482
448
439
466
465
444
453
452
428
391
374
378
371
362
358
351
356
336
322
335
345
318
306
311
332
315
306
304
316
328
316
307
316
337
351
370
390
374
359
366
372
375
381
381
376
373
399
420
419
395
414
433
442
432
429
427
424
403
386
388
410
440
446
427
408
383
385
403
426
434
396
411
427
410
417
429
432
406
401
440
440
380
353
367
390
413
413
401
394
372
370
391
405
391
380
375
378
359
349
360
390
386
386
394
387
376
399
437
451
429
403
393
388
374
359
367
387
395
421
414
380
364
385
407
401
391
414
430
426
423
421
437
453
443
453
469
469
472
483
492
504
512
496
493
504
515
524
531
539
532
522
523
549
552
540
548
548
544
556
573
581
557
543
579
613
604
593
584
581
565
561
590
610
602
604
608
614
602
589
593
584
590
588
589
582
585
599
619
629
639
616
599
598
607
607
613
612
636
648
638
650
663
661
650
632
630
635
637
656
648
648
670
661
651
649
640
628
614
604
628
662
665
660
663
635
610
599
600
619
632
637
642
630
603
584
592
600
615
596
564
573
581
591
604
593
588
587
580
578
582
584
589
607
609
577
567
565
567
569
592
596
580
577
580
579
553
536
527
527
531
520
507
509
485
491
535
526
506
520
519
487
477
484
511
552
594
647
722
795
835
875
908
895
832
772
687
591
483
404
386
412
415
407
419
416
419
466
475
449
464
475
456
442
444
446
435
444
450
449
456
465
460
452
456
483
484
464
456
453
459
463
469
483
495
489
471
468
456
476
497
515
526
523
534
520
493
491
511
519
526
525
509
503
498
499
507
510
520
518
519
508
496
521
551
551
548
534
528
513
504
505
504
531
546
549
559
546
541
538
562
567
562
556
549
543
534
545
572
593
593
608
616
618
606
604
589
580
594
605
612
610
602
591
593
606
595
577
558
546
529
532
538
535
530
514
519
517
495
476
489
492
500
489
462
427
414
424
430
421
414
430
436
421
414
417
426
442
460
471
448
430
429
423
429
447
457
451
443
433
424
433
469
493
501
484
475
476
464
469
465
470
463
470
461
462
470
481
489
495
472
462
460
460
482
488
512
533
513
495
483
481
483
475
476
498
506
489
467
457
457
448
449
483
515
494
474
452
446
453
467
478
485
497
505
495
471
463
476
485
479
497
498
501
506
490
461
456
484
490
478
489
476
470
471
470
474
508
509
504
505
486
495
506
505
497
477
459
450
468
486
498
508
519
509
496
477
453
456
478
492
504
498
474
453
463
491
509
514
523
532
515
473
455
476
504
522
519
509
499
496
510
528
529
516
500
493
507
508
510
527
520
513
499
499
492
484
477
512
536
527
504
501
502
496
515
526
520
507
498
496
492
502
520
530
517
511
510
511
500
481
479
495
516
517
495
490
493
493
494
495
490
535
573
536
503
492
487
490
495
485
486
484
481
501
545
551
528
514
519
525
516
505
504
502
498
479
500
522
512
502
499
515
549
566
541
520
507
506
510
525
533
526
507
510
506
493
500
512
516
514
501
491
483
485
507
526
508
490
482
485
480
475
505
582
660
734
790
832
884
895
864
804
736
645
563
487
405
346
333
329
356
384
399
402
416
427
414
413
430
445
460
466
458
436
432
446
460
466
461
471
472
464
464
478
491
474
455
452
444
442
481
510
521
499
484
473
475
478
503
515
511
507
509
513
509
500
499
514
510
509
499
499
507
503
491
496
509
508
515
531
526
509
488
505
523
535
565
580
574
552
540
537
556
556
565
585
576
568
574
569
577
595
600
610
616
607
594
593
601
610
618
629
622
597
596
616
623
618
632
643
619
593
587
590
580
565
571
576
548
538
540
534
544
562
547
510
487
473
476
472
470
467
451
449
437
428
455
472
458
447
438
433
418
408
418
429
438
438
452
468
461
457
462
442
447
452
452
454
452
452
482
499
494
483
486
486
480
483
495
506
502
497
476
466
489
499
500
520
532
534
543
538
504
468
485
525
554
543
534
512
478
467
487
516
520
520
520
523
515
509
504
511
550
567
537
530
510
488
496
523
529
522
524
510
493
491
517
532
536
553
544
514
507
498
511
533
537
544
532
513
491
496
501
512
521
526
527
521
517
503
527
562
552
527
517
520
509
514
511
517
526
528
533
536
527
519
525
558
571
558
539
537
523
512
512
513
527
558
567
553
531
517
517
549
550
516
526
519
509
531
536
536
547
550
540
521
511
516
523
523
524
530
532
530
523
527
540
551
563
563
573
542
510
490
483
505
527
551
562
560
531
502
510
523
534
534
533
547
526
518
541
543
549
556
550
550
534
531
549
558
557
538
521
518
529
543
532
540
560
549
539
539
535
534
547
559
569
558
563
577
561
547
546
553
561
561
563
559
543
534
543
549
559
565
548
515
507
507
510
510
509
513
518
524
515
510
540
558
580
626
685
732
780
838
889
910
885
836
759
675
580
490
445
401
368
370
389
400
416
433
431
444
451
432
468
486
450
451
464
467
470
471
457
474
468
460
472
484
476
474
484
471
459
464
478
500
508
508
497
491
473
475
494
496
491
495
517
517
495
486
503
521
506
485
472
490
501
470
457
476
484
485
493
510
514
509
514
527
544
545
533
546
542
532
534
555
552
534
541
543
522
513
531
571
583
569
562
564
568
545
546
569
589
593
605
606
579
580
584
580
589
585
596
581
569
559
562
584
598
590
574
568
536
507
509
515
505
489
488
485
464
444
438
446
453
448
440
427
406
378
376
396
412
430
440
420
400
389
386
400
408
387
392
408
407
409
415
433
447
436
422
428
412
396
404
419
429
425
429
422
410
403
407
415
422
433
448
465
455
445
456
466
468
474
470
470
456
452
458
482
482
476
473
461
440
424
437
459
462
471
484
479
463
458
480
527
506
469
471
477
457
434
453
482
480
479
495
485
465
448
464
492
505
497
491
484
466
466
477
493
495
498
494
482
480
475
498
503
489
482
480
478
463
444
445
458
488
516
518
508
496
482
493
505
512
504
495
495
481
468
476
493
519
523
538
530
510
499
491
492
503
509
507
503
487
475
488
499
493
496
513
512
498
487
500
532
539
528
518
509
493
488
493
497
496
479
482
488
504
501
499
516
520
522
518
511
518
537
525
517
499
495
494
510
512
505
478
491
510
519
510
499
490
508
525
536
530
526
528
506
487
473
477
499
509
504
502
517
516
508
509
542
564
553
527
513
509
495
487
499
512
518
515
509
513
532
534
525
522
525
513
521
523
524
521
530
536
525
517
507
490
478
489
505
510
510
499
489
454
453
465
478
480
499
529
554
589
650
739
807
856
873
855
805
719
622
551
497
436
388
366
353
349
370
401
422
425
413
436
453
435
424
448
463
455
454
452
442
433
433
433
437
448
456
460
464
451
443
468
482
482
472
456
457
457
448
455
476
490
492
481
473
470
462
467
489
488
479
502
507
510
513
498
498
508
507
503
508
501
507
510
504
518
536
556
537
506
499
518
542
534
524
531
541
521
504
524
556
564
553
552
566
574
572
583
600
588
581
582
584
579
594
608
602
614
607
595
603
610
594
579
583
583
582
586
582
563
545
540
549
554
557
540
509
494
503
527
522
481
442
428
446
458
459
462
448
436
429
435
435
409
388
403
431
433
418
409
417
424
411
414
425
424
420
430
442
408
403
426
444
463
465
467
468
448
441
465
473
466
484
472
443
452
436
442
463
469
472
487
491
472
472
482
494
494
477
470
470
458
447
466
493
499
495
497
481
454
452
461
481
512
522
527
518
479
457
471
491
500
490
488
486
477
472
468
477
488
515
508
492
470
470
479
492
485
485
496
499
481
480
483
498
510
515
530
528
495
489
486
490
486
493
496
492
488
498
505
511
520
506
496
491
490
509
536
540
531
527
528
511
494
483
483
492
501
508
512
518
518
515
510
505
494
505
524
517
490
477
482
493
512
537
546
526
501
485
496
525
534
526
533
504
483
477
496
525
520
490
484
505
501
482
503
528
518
517
507
475
463
496
526
517
509
506
510
505
494
497
507
523
524
523
513
510
521
519
527
523
516
518
502
488
482
495
502
511
514
528
518
521
502
500
527
521
519
528
546
533
519
529
538
543
542
548
548
537
530
529
539
551
551
564
582
557
526
524
530
534
540
549
539
524
504
489
495
517
541
549
527
523
526
514
506
508
505
514
521
512
508
512
544
621
704
778
838
888
900
891
844
771
686
598
530
468
415
399
405
425
446
430
442
457
436
458
463
468
478
465
453
450
440
442
459
481
497
482
468
472
483
474
471
472
473
476
485
493
486
490
497
507
509
515
533
539
524
516
512
513
513
497
498
515
506
490
502
533
552
558
564
538
507
492
504
520
529
542
542
518
525
548
568
574
586
589
559
537
530
532
556
583
585
585
594
593
578
596
610
591
578
587
591
587
602
589
597
615
631
654
660
644
