543
532
495
450
428
441
480
527
551
541
503
456
433
445
483
530
552
540
501
455
433
444
482
528
550
538
498
452
429
441
480
528
553
541
501
454
432
444
481
528
552
541
503
457
434
445
482
527
550
538
498
451
427
437
476
523
547
536
497
451
426
436
472
517
540
528
488
441
418
428
464
509
532
519
481
436
413
422
458
504
529
518
480
432
407
416
451
496
520
508
471
425
402
413
450
497
519
506
469
424
400
410
446
492
517
507
470
423
398
408
444
491
514
503
466
420
397
408
446
494
518
507
472
426
402
412
447
493
518
509
475
429
404
414
452
500
526
516
482
436
411
420
457
505
531
522
486
440
416
427
464
511
536
526
489
445
422
432
466
512
538
529
493
447
422
432
469
518
544
536
500
455
430
439
476
523
548
539
501
455
430
438
474
522
549
540
504
458
432
441
476
522
548
540
503
457
431
440
477
523
550
541
504
456
430
438
476
525
552
545
509
462
435
444
479
526
553
545
508
461
435
444
480
526
553
546
509
463
436
443
478
525
551
542
507
461
434
441
476
523
551
543
507
462
435
442
476
522
550
543
507
461
436
444
481
529
556
549
515
468
441
448
484
532
559
552
517
471
446
454
490
539
565
558
524
476
449
457
493
542
569
561
527
480
451
457
494
543
570
562
527
481
452
459
494
542
570
564
529
481
453
460
495
544
573
567
531
483
455
461
496
544
572
564
528
480
452
458
492
540
569
563
528
481
454
460
494
543
573
567
531
484
457
463
497
545
574
568
533
485
456
463
497
546
575
568
535
488
460
465
497
544
573
568
534
486
456
462
496
544
573
566
531
484
455
462
495
543
572
566
533
486
456
462
495
542
571
566
534
487
458
463
496
544
572
566
533
485
455
459
491
539
568
563
531
484
454
460
494
542
572
567
533
485
455
459
492
539
568
563
530
482
453
458
491
539
569
564
531
485
456
461
493
540
570
565
532
485
456
460
493
542
572
568
535
488
459
463
495
543
572
567
533
486
457
462
495
542
573
569
535
487
457
462
496
542
572
568
536
490
461
465
497
545
576
572
540
492
461
464
497
545
575
571
538
490
460
464
498
545
576
571
538
491
460
464
497
544
574
571
539
492
461
463
496
543
574
570
537
489
458
461
493
540
572
570
538
489
458
461
494
542
573
569
537
490
459
460
492
540
572
569
537
490
460
463
494
542
573
569
539
491
460
463
495
543
575
573
542
496
464
466
497
545
578
576
545
497
466
467
498
546
577
574
541
493
462
464
495
542
574
571
539
491
458
460
491
540
574
572
540
492
460
462
492
539
572
571
540
493
461
460
489
538
572
570
539
491
459
460
491
539
571
568
537
492
459
460
491
539
571
570
540
491
459
461
494
540
572
570
540
492
459
460
490
538
571
571
541
493
461
461
491
538
571
570
539
491
458
460
491
538
571
569
539
492
459
459
490
538
572
573
543
495
463
463
493
540
572
572
541
493
459
459
489
536
570
571
542
495
462
463
494
540
573
573
543
495
462
463
492
538
572
572
542
495
461
460
489
537
571
571
540
493
459
458
488
535
569
570
541
494
459
459
489
536
569
570
541
493
458
457
485
532
568
571
542
495
461
459
488
534
569
569
540
493
459
458
487
533
566
568
541
494
459
457
485
531
566
567
539
492
458
455
484
530
564
567
539
493
459
458
487
533
568
570
541
494
461
461
490
537
571
571
541
494
461
461
491
539
574
575
546
499
463
460
487
534
569
572
544
497
460
457
486
532
566
568
540
494
459
457
486
533
568
570
541
494
460
458
486
533
569
571
541
494
459
455
483
530
566
570
543
497
461
456
483
530
566
569
542
496
460
457
485
532
568
572
545
498
463
459
485
530
567
572
546
499
463
460
486
531
568
572
544
498
461
457
484
532
569
575
549
502
464
460
488
533
570
575
548
500
463
458
486
534
571
576
550
503
466
461
487
533
570
575
549
501
465
461
488
535
572
577
550
503
466
462
488
534
572
576
548
503
466
460
484
529
567
572
546
499
461
455
480
525
564
570
546
502
465
459
484
531
570
575
548
500
462
457
485
533
571
577
550
503
465
459
484
530
567
572
546
499
462
457
483
528
567
574
548
501
463
458
482
527
565
571
544
498
460
454
481
528
565
572
546
501
463
457
483
529
566
573
547
501
462
455
480
526
564
570
545
499
460
454
479
525
563
569
545
499
461
453
477
523
562
569
545
501
463
455
480
526
565
573
549
502
464
457
483
527
565
572
548
502
464
457
482
527
567
575
549
502
463
456
480
524
561
569
545
500
461
454
479
525
564
572
548
502
464
456
480
525
563
571
548
502
463
457
481
525
563
571
547
501
462
454
478
524
564
573
551
506
467
457
481
526
565
575
553
508
468
459
482
528
567
575
550
504
464
456
480
526
566
576
553
507
468
457
480
524
564
573
548
503
463
454
478
524
565
576
553
508
467
457
480
525
565
575
551
505
466
457
480
523
562
572
549
505
466
456
479
524
564
575
552
508
467
456
478
523
564
574
551
506
465
455
479
524
565
574
549
503
462
452
475
519
561
573
552
508
468
458
480
524
564
574
551
506
466
456
479
524
566
576
554
510
469
458
480
524
565
575
552
508
466
456
479
523
564
574
552
505
463
452
475
520
562
575
553
509
468
457
479
521
562
573
552
507
466
454
475
520
560
571
551
508
468
456
477
521
562
573
552
509
469
457
477
519
561
574
553
509
468
455
476
520
561
575
556
513
472
459
478
521
563
575
555
511
468
455
477
521
562
574
553
509
468
456
478
521
562
575
555
511
469
458
479
521
562
576
556
513
471
457
475
517
558
572
553
508
466
453
474
516
558
572
551
506
464
450
470
515
557
571
552
508
465
452
474
517
560
575
554
509
466
453
474
517
559
573
554
513
472
458
477
520
564
579
560
517
474
459
476
517
559
574
553
509
468
454
473
514
555
569
548
505
463
448
467
508
551
565
546
503
460
445
464
507
549
564
544
501
459
443
462
504
547
561
542
500
457
443
462
504
546
560
541
498
456
442
462
505
548
563
544
502
458
442
461
503
546
562
543
499
457
442
459
499
543
559
542
500
457
442
460
502
546
560
542
499
458
443
462
503
548
564
546
503
459
442
460
501
545
562
545
505
463
448
467
509
550
564
545
504
463
446
464
505
548
564
546
505
462
445
462
503
547
562
545
503
459
443
460
501
545
562
543
501
458
442
460
501
546
562
544
503
461
446
463
504
548
564
547
505
462
446
463
504
549
565
548
507
464
448
467
509
552
567
548
507
464
447
464
506
552
570
553
513
469
451
468
508
552
569
552
512
469
452
468
508
552
571
554
513
469
452
469
510
555
573
557
517
474
457
473
514
557
574
558
517
473
455
470
508
551
569
554
514
470
454
471
510
554
573
558
517
472
454
470
512
556
573
558
519
475
457
472
512
556
574
559
519
474
455
471
512
556
575
560
521
477
458
472
510
553
571
556
516
471
453
468
507
552
571
556
518
474
455
470
511
558
578
562
523
479
459
474
514
559
578
563
523
477
456
470
509
555
575
562
524
479
459
473
512
556
576
562
523
478
457
470
508
555
576
564
526
480
460
474
513
558
579
566
527
481
458
472
511
557
578
564
526
481
460
472
510
557
578
564
525
479
458
471
510
555
575
560
521
476
457
471
510
556
578
564
526
480
459
472
513
560
581
568
529
484
462
475
512
557
580
568
529
483
461
476
515
561
582
568
527
483
462
474
512
558
580
568
529
483
460
472
509
554
575
564
527
482
460
470
507
553
575
563
525
477
454
466
503
550
573
561
525
480
458
470
506
552
574
560
520
474
451
462
500
547
569
558
521
475
451
463
502
548
571
560
524
479
456
466
503
550
575
564
527
481
457
468
505
551
575
564
527
481
457
466
501
547
573
563
525
480
457
467
504
552
577
567
530
483
460
470
506
552
576
565
527
481
456
466
501
547
571
561
524
478
452
462
498
546
572
563
526
479
455
465
502
548
572
562
525
478
453
463
500
547
573
563
527
481
458
468
503
550
576
567
529
482
458
469
505
551
575
563
525
478
452
461
497
546
572
563
527
480
455
465
502
550
575
566
529
483
457
466
503
550
576
567
532
485
460
469
504
551
578
569
531
483
456
464
500
547
571
562
526
479
453
460
495
544
571
562
526
478
452
459
494
541
568
559
523
476
449
457
494
541
568
560
523
476
449
455
488
536
564
559
525
479
452
459
494
540
566
558
524
479
452
459
493
539
566
559
523
477
451
460
495
542
570
563
528
481
455
462
496
542
568
561
526
480
454
462
495
542
570
563
528
481
452
459
493
541
569
561
527
480
453
460
494
540
569
562
527
479
450
457
492
540
568
561
527
479
450
456
491
539
568
565
533
486
458
464
497
543
572
566
533
485
456
460
494
542
571
566
531
484
454
459
493
540
570
565
533
486
456
461
495
541
567
561
529
483
455
460
493
541
569
564
532
485
454
459
492
540
569
563
530
485
456
462
496
543
571
566
533
486
456
461
494
541
571
567
534
488
459
463
494
540
570
566
533
485
454
458
489
534
564
561
529
482
453
457
490
538
568
565
533
486
455
458
489
535
564
561
530
483
452
456
489
538
570
567
535
487
457
461
493
540
572
568
534
487
456
459
489
536
567
564
531
483
452
455
487
535
566
563
530
483
452
456
487
533
564
561
528
482
452
455
486
535
568
565
533
487
455
457
490
538
570
568
536
489
458
460
490
536
567
565
533
485
452
454
485
533
566
564
534
488
456
459
491
539
571
568
536
488
456
457
487
534
567
566
536
490
457
458
489
534
566
566
536
490
457
458
490
538
570
567
535
489
456
457
488
534
566
566
536
490
458
460
490
536
569
568
537
490
456
456
486
534
569
