528
578
570
516
441
392
398
451
526
576
571
517
443
395
400
452
528
578
573
521
445
395
399
451
528
578
573
521
445
394
396
446
520
570
567
515
439
389
392
443
518
568
564
512
435
383
384
433
505
556
552
498
421
367
365
411
483
533
529
476
399
345
344
391
464
515
512
462
387
334
333
379
451
501
496
444
368
315
313
359
430
481
479
429
356
304
302
347
419
473
474
426
354
301
300
346
420
473
473
426
353
300
297
343
416
469
470
423
351
300
300
345
419
473
476
433
363
312
313
362
437
492
496
453
382
329
327
373
447
503
507
464
394
342
341
388
462
520
527
484
415
364
364
411
485
542
547
504
434
381
379
426
502
561
566
522
451
399
396
442
517
575
580
536
466
413
410
456
532
590
597
554
482
427
424
470
544
601
607
566
494
438
432
477
551
610
618
576
504
446
440
483
555
613
620
577
505
449
443
486
558
615
622
581
508
451
445
488
561
621
628
584
511
454
447
489
563
622
629
586
515
458
450
493
566
624
632
592
521
463
455
496
569
629
640
600
530
472
463
505
581
643
653
613
543
485
479
522
596
657
669
631
562
502
491
532
604
663
673
632
562
503
492
532
603
665
677
639
570
511
501
541
611
672
686
648
578
517
504
542
613
672
683
644
572
508
494
531
602
664
677
640
570
509
497
535
605
665
678
640
568
505
489
525
594
655
668
628
556
494
480
518
587
648
661
624
554
492
477
514
584
646
661
625
556
494
478
513
582
644
659
622
551
487
470
504
574
637
653
616
546
483
467
503
573
637
654
619
549
486
470
506
576
639
655
620
551
488
471
505
575
637
653
619
549
485
468
502
573
638
656
623
556
493
475
508
575
638
655
621
553
489
470
501
567
632
651
617
548
482
462
494
561
625
645
613
547
482
462
494
562
626
646
614
548
483
463
493
560
623
642
610
542
476
454
484
551
615
634
603
537
471
449
480
547
613
636
607
540
476
455
485
551
617
638
605
538
473
450
479
544
610
632
601
534
468
444
472
538
605
627
599
534
469
447
476
540
606
630
601
535
470
446
473
538
604
626
596
531
464
440
469
534
601
625
598
533
466
441
468
532
600
626
600
537
471
447
473
536
601
626
599
536
470
445
471
536
603
628
601
537
470
444
471
534
602
628
602
539
470
443
469
532
598
625
601
540
473
447
472
536
605
633
608
546
479
452
476
538
605
632
606
543
475
446
469
531
599
627
604
542
474
448
475
539
606
634
611
550
483
456
480
543
610
637
612
550
482
453
479
542
610
638
617
558
490
460
482
542
609
638
614
551
481
453
474
534
601
631
610
551
483
452
473
534
602
633
611
550
482
450
471
533
600
631
609
548
477
444
464
523
591
623
601
542
473
442
462
521
590
624
605
547
479
446
466
525
594
625
604
545
476
442
460
517
586
618
597
537
469
434
453
511
580
615
597
540
472
438
457
514
583
615
596
537
468
433
450
507
575
608
590
533
464
429
447
504
573
607
589
533
466
432
450
507
577
612
595
538
469
433
450
506
575
610
593
537
468
433
449
505
573
608
591
536
467
431
446
502
573
610
595
541
471
434
447
499
565
602
587
533
465
429
445
499
568
605
590
536
468
431
445
498
566
603
587
531
462
425
439
493
561
600
587
533
464
426
439
493
561
599
584
529
461
423
435
487
555
592
579
526
457
418
429
479
547
586
573
522
455
418
430
481
549
589
577
525
457
419
431
484
553
592
580
527
459
420
430
481
549
588
577
525
457
418
429
480
549
589
578
527
460
420
428
477
543
582
570
519
450
409
418
466
533
572
560
508
440
400
410
459
526
566
555
503
437
396
404
452
520
561
551
500
433
392
400
448
514
552
542
492
424
382
388
436
504
546
538
488
418
372
378
426
492
534
525
474
406
364
370
417
484
526
518
468
398
355
361
410
478
519
511
462
394
350
355
401
470
513
507
461
395
352
358
407
476
521
516
470
403
359
363
412
481
527
524
478
412
368
374
423
492
537
532
484
418
375
381
429
497
544
539
493
428
385
389
437
507
555
553
507
441
398
403
453
524
571
568
523
457
413
417
464
534
582
580
533
465
419
422
469
539
588
587
541
474
428
430
477
547
596
593
547
478
430
431
477
546
594
592
547
479
431
431
476
545
595
594
547
477
429
428
472
541
589
588
543
475
426
428
474
545
596
597
554
485
435
433
476
543
590
588
542
473
421
417
457
521
567
565
520
450
399
396
438
504
553
554
512
445
396
395
437
504
554
557
516
451
401
399
441
508
561
565
523
453
401
396
436
502
554
558
517
448
397
392
433
501
555
560
520
453
402
398
440
507
561
567
528
462
410
407
449
518
572
579
538
471
420
415
456
526
583
592
554
489
438
433
474
543
598
607
569
501
447
441
481
549
602
607
566
496
439
431
470
538
593
599
559
490
435
426
464
533
591
600
561
493
437
429
469
539
597
606
565
495
438
428
467
536
594
604
565
496
440
430
469
539
596
606
566
497
439
428
465
534
592
603
563
493
435
423
460
531
590
603
565
495
437
426
465
535
596
610
574
505
446
434
473
544
604
615
576
506
445
429
462
529
588
598
558
484
419
401
432
497
556
568
531
463
405
396
435
508
574
592
559
492
433
419
456
526
587
600
563
492
428
411
445
514
575
588
550
480
417
401
436
504
566
581
546
477
414
399
436
505
570
588
555
485
421
402
436
506
571
590
558
492
430
414
451
524
591
611
580
513
452
437
473
543
607
624
590
519
452
431
464
532
596
615
581
510
445
424
454
520
582
598
560
487
418
395
426
493
559
579
546
478
414
396
430
501
571
595
565
500
440
424
460
532
602
626
595
527
459
437
467
534
597
616
584
515
448
426
456
526
594
618
587
520
454
432
464
533
600
623
594
527
460
436
467
535
603
626
596
528
461
438
469
537
604
626
595
527
460
436
466
533
600
622
589
520
451
426
454
520
588
611
582
514
445
420
448
513
580
603
574
506
437
409
434
499
565
588
557
489
418
392
418
481
547
572
542
474
403
374
397
460
529
554
525
458
387
358
382
445
514
543
516
450
381
353
378
443
512
541
513
447
377
349
374
438
507
536
508
444
375
347
372
436
506
536
509
445
375
346
370
433
503
531
505
441
373
344
368
431
501
534
511
449
381
351
375
438
507
538
513
448
380
351
375
438
510
544
521
458
389
360
384
448
519
552
529
468
398
369
391
453
524
557
535
473
404
374
396
459
532
567
546
485
416
384
405
468
542
577
557
495
425
394
415
477
549
584
564
502
432
398
420
482
554
588
566
503
433
400
420
481
552
587
566
505
434
401
422
484
557
593
573
512
440
405
424
484
557
594
574
515
444
408
426
486
558
594
576
516
447
411
429
488
561
597
579
519
448
414
433
493
567
604
587
528
458
422
440
500
575
614
599
540
469
433
452
513
586
625
608
549
477
441
458
518
591
629
613
556
485
448
463
521
594
633
618
560
487
449
465
524
596
635
621
564
492
453
467
525
598
637
621
565
493
453
467
526
600
640
625
568
495
456
469
526
598
637
624
568
495
454
466
523
597
638
624
567
494
454
467
523
596
638
625
568
495
454
468
525
598
640
628
572
498
456
467
523
597
641
629
574
501
459
471
527
600
643
632
577
504
462
474
529
603
647
637
583
510
467
477
533
607
652
641
586
512
468
478
533
607
651
642
588
515
471
479
532
605
648
638
585
512
467
476
529
601
643
631
574
497
448
454
504
576
618
607
552
478
431
437
489
561
606
597
542
466
418
425
476
549
594
586
531
457
410
417
469
542
590
583
531
459
415
424
476
549
597
592
542
471
425
433
485
560
610
607
557
486
441
449
503
580
631
629
580
508
464
473
528
606
660
659
611
538
491
499
554
632
684
683
636
567
521
528
581
656
707
703
654
581
533
538
590
663
713
711
663
591
542
545
594
668
720
719
670
598
547
547
595
667
714
709
656
579
524
523
568
636
682
675
621
542
484
480
524
592
639
633
579
500
443
439
482
550
598
595
543
467
414
413
459
532
583
581
533
459
405
404
449
520
571
571
524
450
398
398
445
518
572
573
527
454
401
400
449
525
581
585
539
467
416
417
466
543
599
603
559
488
437
438
487
564
623
630
588
519
467
467
515
591
650
654
609
537
482
479
524
599
655
658
614
541
486
483
529
603
658
661
616
544
486
480
524
597
651
655
610
536
479
473
515
586
641
644
596
518
457
449
489
559
611
612
562
483
421
410
448
515
569
572
527
452
394
385
427
499
557
562
518
446
389
382
423
494
551
558
515
443
386
379
420
492
550
558
518
446
388
382
426
500
561
571
529
458
401
393
432
502
561
572
532
463
407
400
443
517
580
592
554
484
428
420
462
536
598
609
569
498
441
432
473
547
609
621
582
510
451
440
480
553
614
625
585
515
455
444
483
555
617
630
592
520
460
449
489
562
625
639
601
531
471
459
497
568
630
644
606
534
473
461
499
571
633
647
609
538
476
461
499
570
632
646
608
537
474
459
497
569
630
642
604
532
469
453
488
555
617
629
591
520
454
436
470
540
602
616
579
507
442
423
456
522
582
592
552
479
415
396
428
495
557
572
534
463
398
380
414
484
549
567
532
463
401
384
419
488
553
571
536
467
404
387
420
490
558
577
542
472
409
392
428
499
565
583
549
481
418
399
434
503
571
592
559
489
424
405
438
507
574
594
561
491
426
406
439
508
576
596
564
496
431
410
442
509
576
597
565
496
431
411
443
510
576
597
566
499
433
412
442
511
579
601
569
501
436
415
445
512
579
601
568
499
432
409
437
502
569
592
561
494
427
404
435
502
571
594
563
495
427
402
432
498
566
590
560
493
426
404
433
499
568
594
564
497
429
404
432
498
568
594
566
499
433
410
438
504
573
597
567
502
436
411
438
504
573
598
570
503
436
409
437
503
573
599
570
503
434
406
431
495
563
589
561
495
426
400
428
493
563
590
563
498
430
401
425
488
556
584
557
493
423
394
420
485
555
584
557
492
422
394
418
482
553
583
559
496
426
397
420
483
554
583
557
493
423
393
416
478
547
575
550
486
416
386
407
468
537
567
543
480
409
376
399
462
532
562
537
474
402
370
393
457
528
560
537
474
403
371
394
456
527
560
539
477
407
375
396
458
530
562
540
477
407
374
396
456
527
559
537
474
404
370
391
452
524
558
537
476
406
374
394
455
527
563
544
483
412
378
400
462
534
569
549
488
418
386
408
470
544
580
561
501
430
396
415
476
550
586
566
505
434
398
417
478
551
587
569
509
439
405
424
484
558
595
576
517
446
411
430
490
562
598
579
520
448
413
430
487
560
599
582
523
451
414
432
491
564
602
587
528
456
418
433
490
561
598
580
522
451
413
429
488
562
601
585
526
451
412
428
486
559
598
582
525
454
415
429
485
559
599
584
528
457
417
433
492
566
605
591
533
460
419
431
487
560
601
586
529
455
415
429
484
558
599
585
528
