577
485
440
432
459
509
555
565
538
487
441
431
457
508
554
564
537
485
439
429
455
506
552
564
538
488
441
430
455
505
551
562
535
484
438
427
453
502
547
558
532
482
438
427
452
500
546
558
531
480
434
421
446
496
541
552
525
474
428
417
441
489
535
546
522
473
430
420
446
496
542
554
529
480
435
423
448
497
545
558
534
485
439
427
451
500
547
560
536
487
441
429
455
506
553
564
540
490
444
432
455
503
550
561
537
490
445
433
457
505
553
566
542
492
445
432
454
502
548
561
536
487
439
425
448
497
545
559
534
484
437
424
447
496
544
556
532
484
439
425
448
497
545
559
535
485
438
425
449
498
546
561
537
489
443
429
451
499
547
560
537
488
442
428
452
501
549
562
540
492
444
429
454
504
552
566
542
494
447
432
454
502
550
564
542
494
447
432
454
501
549
563
539
490
444
430
452
500
549
565
542
492
443
428
448
495
544
560
538
490
442
425
446
492
541
557
534
486
440
426
447
495
544
560
537
488
441
425
448
495
542
556
534
485
438
422
444
492
543
560
538
488
439
422
443
491
540
557
535
486
438
422
444
492
542
560
540
492
444
426
447
495
545
561
540
491
443
426
447
493
540
554
533
486
439
423
446
493
542
560
538
489
441
424
444
491
540
559
539
492
446
429
449
495
544
560
539
492
444
426
447
494
545
562
542
494
446
430
450
495
543
561
542
495
447
430
449
494
542
560
542
497
448
430
450
497
546
563
541
494
446
427
445
491
542
560
540
492
443
426
447
493
543
561
542
494
446
426
445
491
542
561
543
496
447
428
447
495
546
564
542
494
444
427
447
493
544
564
546
499
450
431
449
494
544
564
545
499
449
430
449
495
546
566
546
499
451
431
448
494
544
565
547
502
452
434
452
498
550
570
553
508
459
439
458
504
555
575
556
509
459
438
457
502
553
574
555
509
458
439
459
504
554
574
556
510
459
437
454
500
552
573
556
510
460
438
455
500
550
572
555
508
458
437
454
501
554
576
558
513
463
442
460
505
556
575
557
510
461
440
458
503
555
577
561
516
465
442
457
502
554
577
561
517
467
444
461
505
556
577
559
514
463
441
459
504
555
577
560
515
466
444
461
504
556
579
563
519
468
446
462
507
559
580
562
517
466
443
458
503
554
575
559
516
466
442
459
502
553
575
559
515
464
442
458
503
554
578
563
519
468
444
459
503
555
578
562
517
466
442
458
502
556
580
564
520
469
445
462
506
558
581
567
525
474
450
464
508
559
582
565
520
469
446
461
505
558
583
570
527
475
450
463
506
558
582
567
524
472
446
459
502
555
580
566
523
470
445
460
504
557
583
568
525
474
449
462
504
557
583
571
528
477
452
467
510
561
588
575
533
481
456
469
512
563
589
574
530
476
449
463
506
557
582
568
526
474
449
461
502
556
583
570
526
472
445
458
501
554
581
569
527
477
452
464
506
558
585
572
530
478
452
466
508
559
586
573
531
478
451
463
506
559
585
573
530
476
449
461
503
557
585
574
532
480
453
465
507
560
587
576
534
480
451
461
502
554
582
570
530
479
452
463
503
555
582
572
532
479
451
462
503
556
583
571
531
479
452
463
503
555
583
573
531
478
450
461
503
556
582
571
530
476
448
459
500
554
582
570
529
477
450
461
502
555
584
574
532
480
451
460
500
552
580
569
527
474
445
457
498
552
583
573
532
479
449
459
499
552
582
573
533
480
453
463
503
555
583
572
530
477
449
458
498
552
582
572
532
481
451
461
501
554
583
573
532
479
450
458
498
553
584
575
536
483
453
461
500
552
582
573
534
480
450
457
496
549
580
574
535
481
451
459
498
552
584
576
537
484
453
461
499
553
584
576
536
482
451
458
497
551
582
574
535
484
454
461
499
554
587
579
540
486
453
460
498
552
584
576
538
485
453
459
496
549
581
575
537
484
452
460
498
551
583
576
537
484
453
460
499
555
587
579
540
486
455
462
500
553
584
577
538
484
452
458
496
549
581
576
538
485
454
459
496
549
581
574
535
482
450
456
494
549
582
576
537
484
450
456
493
547
582
577
538
484
451
457
495
551
584
579
541
487
453
458
495
548
582
577
539
485
451
455
492
546
582
577
541
489
455
459
496
549
584
578
540
485
450
455
492
546
581
576
538
484
450
454
490
544
579
576
540
487
452
456
494
548
582
577
539
486
452
455
490
543
577
572
536
483
449
452
488
541
574
570
534
481
448
451
488
540
575
572
536
483
449
453
489
542
576
573
538
485
449
451
486
540
576
574
539
486
450
453
488
541
577
574
539
486
451
454
489
541
575
573
538
483
447
449
486
540
576
572
536
483
448
451
487
542
578
575
539
486
450
452
487
540
575
572
537
484
448
449
484
539
575
574
541
489
452
453
487
540
575
572
536
484
448
451
486
540
575
573
538
484
446
448
482
535
573
572
537
485
450
452
487
540
577
577
543
490
453
454
489
542
580
580
545
492
454
454
488
543
581
581
547
494
456
456
490
543
580
580
545
490
452
452
485
538
576
577
543
490
453
453
487
541
580
580
546
491
452
451
485
539
578
579
547
494
456
455
487
540
579
581
548
495
456
453
484
537
577
579
546
492
453
451
484
536
575
576
543
491
452
450
483
536
575
577
544
492
453
450
482
536
575
577
543
490
452
451
485
539
578
579
546
494
455
453
484
538
578
580
548
496
458
454
484
536
576
578
546
493
451
447
478
531
571
575
544
493
455
453
484
538
579
581
548
495
454
451
482
534
574
578
545
491
451
449
481
534
574
577
544
491
451
447
478
531
573
577
545
493
453
449
481
534
576
579
546
494
454
450
481
533
574
577
546
494
453
449
479
531
571
575
544
490
449
445
475
526
567
571
540
488
446
442
474
526
567
571
542
489
448
443
473
525
566
571
541
489
448
444
474
526
568
573
543
492
451
446
475
526
568
574
545
493
452
446
476
527
569
575
546
495
454
449
480
532
573
578
548
496
454
446
475
528
572
579
549
496
455
449
477
529
570
576
545
494
453
446
476
528
572
578
548
495
453
446
474
526
570
578
549
498
455
447
475
527
569
576
548
496
453
445
474
527
570
578
550
500
458
451
478
529
573
581
552
499
456
448
477
529
572
579
551
500
457
449
478
529
572
580
552
500
455
446
475
528
573
581
553
503
459
449
475
525
571
581
552
500
457
448
475
527
570
578
550
498
455
448
476
528
573
583
555
503
459
449
474
525
570
577
549
498
455
445
474
527
572
581
554
502
458
449
477
529
574
584
557
504
460
451
477
528
572
581
552
498
453
442
470
523
568
579
552
500
457
448
476
528
573
581
553
501
456
444
471
523
568
579
553
501
456
445
471
522
567
577
552
502
457
446
472
522
568
581
556
504
458
446
471
521
566
577
551
501
457
446
471
522
567
578
551
502
457
445
469
517
561
573
548
498
453
442
468
519
565
577
551
502
457
446
472
521
566
578
552
500
454
441
467
518
565
579
555
505
459
446
471
520
567
579
554
504
458
445
470
520
567
579
555
506
460
448
473
522
568
580
553
502
456
443
468
518
564
576
552
502
456
442
466
515
563
576
552
502
456
443
468
518
565
578
554
504
457
443
466
514
559
573
551
502
456
442
465
515
562
577
554
506
460
446
469
519
565
579
557
508
461
447
469
518
565
580
558
509
461
447
470
519
566
581
557
508
463
449
472
521
568
583
559
508
460
444
467
516
562
576
553
506
459
444
467
515
561
576
555
507
460
445
466
514
562
577
554
505
458
443
465
513
561
578
556
507
459
442
463
511
560
576
555
506
459
443
465
512
562
580
559
510
463
446
467
515
563
579
557
508
461
444
465
515
564
582
560
512
462
444
465
513
561
579
559
512
464
447
469
517
564
578
556
509
462
445
466
513
560
577
556
508
459
443
464
510
559
578
558
511
462
443
463
511
560
578
558
513
466
447
467
513
561
578
558
511
463
444
465
512
561
580
559
511
461
443
464
510
558
577
556
508
460
441
461
509
560
578
558
511
462
444
463
508
557
576
557
511
461
442
462
508
557
575
556
509
459
439
458
506
556
575
555
508
459
439
456
502
552
571
552
506
456
436
456
503
554
573
555
509
459
439
457
504
555
577
558
512
462
442
460
505
556
576
557
510
462
443
462
508
559
580
561
515
464
441
459
505
557
578
561
515
465
443
460
505
554
575
558
513
462
440
457
503
554
574
556
509
460
439
455
500
550
571
554
508
458
437
455
500
550
572
556
511
461
441
458
502
553
575
558
514
464
442
458
503
554
575
557
512
462
441
458
503
554
576
560
514
463
441
457
502
553
575
559
514
463
440
455
498
549
571
556
512
463
439
454
497
550
573
557
512
461
440
457
501
554
577
560
516
465
443
459
501
552
575
560
516
466
442
458
503
555
581
567
524
472
448
463
508
559
583
567
523
472
449
464
506
558
583
567
521
468
445
460
505
557
580
567
524
473
449
462
506
559
586
572
528
477
451
465
507
559
585
570
525
474
448
460
503
555
580
566
522
470
446
459
503
557
583
569
526
474
449
463
506
558
584
569
525
473
447
459
501
554
581
568
528
476
449
461
504
556
581
568
526
475
450
464
506
558
584
571
527
476
452
464
506
558
583
568
524
472
446
458
500
552
578
565
523
473
448
462
504
557
582
568
525
472
446
460
503
555
580
568
526
474
448
462
504
555
582
569
526
474
447
458
500
553
580
567
523
471
445
457
499
551
576
565
523
471
444
455
497
549
577
564
521
469
441
453
495
547
576
564
524
474
448
461
502
554
582
571
530
479
451
460
500
551
579
566
525
474
445
456
497
551
580
569
527
472
444
455
496
549
577
568
526
472
443
455
495
546
572
562
521
470
444
455
496
550
579
569
528
475
447
456
497
549
578
568
528
477
450
460
500
552
580
569
528
475
447
457
496
548
578
568
527
474
445
454
495
547
577
567
526
473
445
455
496
550
580
569
527
474
444
455
496
549
580
571
529
476
447
456
496
548
577
567
526
473
443
452
494
548
578
567
525
473
444
453
494
547
576
565
524
471
440
451
492
545
576
568
528
476
445
453
492
545
576
568
529
476
446
453
493
546
576
568
528
475
446
453
491
543
573
564
525
473
442
450
489
543
574
566
527
476
445
452
491
543
574
566
