608
607
795
841
866
856
819
770
743
752
790
837
861
848
809
760
734
743
780
828
853
843
804
755
729
738
775
823
850
841
805
756
729
738
775
822
848
839
803
755
729
736
773
820
847
837
800
753
728
736
772
821
849
841
805
757
731
739
774
820
847
839
803
754
727
735
771
819
846
838
802
754
728
735
769
817
845
837
803
756
728
735
768
814
841
833
798
750
722
729
764
812
839
832
797
750
722
728
763
811
839
833
799
751
723
728
761
809
837
831
797
749
721
727
762
811
838
832
797
750
722
728
763
812
840
833
798
750
720
723
757
807
836
831
797
750
721
726
758
805
835
830
795
748
718
722
755
803
831
827
794
746
715
718
749
797
828
825
792
744
713
717
750
797
827
822
788
740
709
713
746
794
826
822
788
738
706
710
741
789
819
814
781
733
700
701
733
781
812
809
778
731
700
702
732
779
810
807
774
727
697
701
733
780
812
810
778
730
697
699
730
777
809
807
776
727
694
695
726
773
806
803
770
723
692
694
725
771
804
802
771
724
691
691
721
767
799
796
764
717
684
683
713
760
794
794
763
717
682
682
711
758
791
789
758
710
676
676
707
753
785
784
753
705
672
670
698
744
778
778
748
702
667
668
698
745
777
776
745
698
662
660
689
734
768
768
738
691
657
657
686
732
765
766
737
691
657
655
684
731
766
767
736
689
655
654
684
731
767
768
738
691
655
653
681
726
760
762
734
689
656
655
681
727
761
763
734
687
652
649
677
723
757
761
733
686
650
647
676
721
756
760
733
688
652
649
677
723
758
760
732
684
647
644
673
721
757
761
734
686
650
647
674
720
755
759
732
686
650
644
671
717
752
756
729
682
644
638
665
712
749
753
727
679
642
637
665
712
747
750
723
677
639
634
661
707
746
751
725
679
643
638
664
710
746
751
724
677
640
634
661
707
744
750
724
677
637
630
656
701
739
745
720
674
635
626
651
697
735
741
717
673
636
631
658
703
740
746
721
675
637
630
655
701
740
747
723
679
640
631
654
700
738
745
720
675
634
626
651
696
735
744
719
672
632
624
648
694
733
740
716
671
630
621
643
687
725
733
709
662
621
614
639
684
723
732
709
664
624
615
639
681
720
730
707
662
623
615
639
682
721
732
710
665
625
616
639
684
724
732
707
662
621
611
633
678
719
729
706
661
620
608
630
675
715
725
703
659
618
607
629
672
711
721
698
654
612
600
620
664
706
718
696
651
611
601
623
667
707
718
696
652
610
598
620
665
707
718
695
650
606
592
614
659
700
712
690
645
603
591
612
656
698
712
693
650
608
594
613
656
698
712
692
648
606
593
612
655
699
713
693
650
606
593
613
655
698
711
691
648
606
592
611
653
696
710
688
642
598
584
605
650
695
710
690
645
601
586
606
650
691
704
684
641
598
584
603
646
689
705
686
642
598
583
601
643
687
703
685
642
599
584
602
644
688
703
683
639
595
580
599
641
685
701
682
640
596
580
598
640
681
696
677
635
592
575
591
633
678
695
677
634
589
572
591
633
677
693
676
635
590
573
590
631
676
693
675
634
589
571
587
629
672
690
674
634
591
573
590
630
673
690
673
631
586
567
584
625
671
689
672
630
586
567
583
624
668
686
671
630
584
565
580
620
665
683
667
626
581
561
576
616
660
679
662
622
578
561
577
617
663
682
667
626
580
561
577
617
661
680
663
623
579
560
576
617
662
680
666
625
580
560
575
616
662
681
668
628
583
561
574
613
657
678
663
622
577
556
571
610
655
675
661
621
575
553
567
608
653
673
658
618
573
552
565
605
649
670
657
618
573
551
563
603
649
671
658
618
573
551
562
600
646
668
654
614
568
546
559
599
645
666
653
614
568
545
558
596
643
666
653
614
568
545
557
594
639
662
651
615
569
545
555
593
639
661
649
611
564
542
554
593
639
662
649
610
563
539
550
588
634
657
645
607
560
536
547
585
631
655
645
607
560
534
545
584
631
655
646
608
561
537
547
584
631
656
646
608
562
537
548
586
634
658
646
608
560
534
542
578
626
652
643
606
559
534
543
578
623
649
638
601
556
531
541
577
624
652
642
604
556
530
538
574
621
646
638
603
556
529
538
575
622
648
639
603
555
527
534
569
615
643
637
601
554
526
533
570
618
646
639
603
554
526
533
570
619
646
637
601
554
526
532
569
616
645
637
601
554
526
532
567
615
644
638
602
554
525
533
569
617
644
636
600
551
520
525
560
608
638
632
597
549
519
526
561
611
640
633
598
552
523
527
560
606
634
629
595
548
518
524
559
607
637
631
596
548
518
524
557
603
632
627
594
548
518
522
555
601
630
625
592
546
517
522
556
605
634
629
595
549
518
521
553
600
633
629
595
547
517
521
555
603
634
631
599
551
519
522
554
601
631
628
596
548
516
519
552
599
630
627
596
548
517
519
550
597
628
626
593
546
513
515
546
592
624
623
592
545
512
514
545
594
626
624
591
542
509
512
544
592
625
623
592
545
513
514
545
593
625
623
591
544
509
509
541
588
621
619
588
541
508
508
539
587
621
620
589
542
509
510
542
591
623
621
590
543
508
508
537
584
619
618
589
544
509
508
538
585
620
620
590
542
507
506
536
583
617
616
586
539
504
503
534
581
615
616
587
539
504
502
532
580
614
615
586
540
505
503
532
577
611
612
583
537
502
500
529
576
611
612
583
537
501
499
529
576
610
611
583
536
500
496
525
571
606
607
579
533
496
492
519
566
602
605
578
532
495
492
522
570
607
610
581
534
497
493
522
568
605
609
582
535
497
494
523
569
605
609
581
533
495
491
517
561
599
604
578
532
494
490
517
564
601
604
577
531
494
489
517
563
600
605
579
533
496
491
517
561
598
603
576
529
490
484
511
559
597
602
576
530
493
488
514
561
599
605
580
534
495
488
514
560
600
607
581
535
495
487
512
557
595
601
575
528
488
482
509
556
596
602
576
529
489
481
505
550
589
596
572
527
487
480
505
552
591
599
574
528
488
479
503
549
588
597
573
527
486
477
501
547
588
598
574
531
490
481
504
550
591
601
577
532
491
483
508
555
597
606
581
534
493
483
506
552
593
602
581
538
497
487
509
554
595
605
582
537
496
486
509
553
593
604
580
535
494
484
508
554
596
607
583
538
496
485
508
552
594
603
580
536
496
485
506
552
594
605
585
541
498
488
509
553
594
605
584
540
498
487
510
556
598
610
589
544
501
489
510
554
595
605
583
540
498
486
507
550
593
605
584
539
495
482
502
547
591
603
582
537
494
482
502
546
590
604
583
539
495
483
504
547
590
603
581
538
496
483
503
546
589
604
584
540
497
482
498
540
583
597
578
536
493
478
496
540
585
599
580
539
495
482
503
547
590
604
582
538
493
477
495
538
582
597
579
536
493
479
497
539
582
598
580
539
495
480
498
541
584
599
581
539
495
479
496
537
578
593
576
535
491
473
490
533
578
596
578
537
493
476
493
537
581
596
577
535
491
473
490
532
577
593
575
533
488
470
487
528
574
591
575
533
487
470
488
531
575
593
576
532
487
469
486
529
574
592
575
534
489
470
485
526
570
589
572
531
486
468
484
526
572
591
574
531
484
464
480
521
566
585
569
528
483
464
479
519
566
586
571
530
484
464
480
521
567
587
573
534
489
468
481
520
566
588
573
532
486
465
480
521
567
588
573
533
488
469
483
523
568
589
574
534
487
466
481
521
567
587
574
534
489
468
481
521
567
588
574
534
487
465
479
519
564
585
571
532
486
465
480
519
565
588
574
535
488
466
478
515
560
581
569
530
484
463
476
515
562
584
573
534
487
463
475
515
562
584
571
532
485
463
475
513
560
582
571
532
484
461
473
511
557
580
568
529
481
459
471
508
554
577
565
526
479
455
465
502
548
572
561
523
476
453
464
500
547
572
561
523
476
451
461
498
544
568
556
519
472
448
458
494
541
564
553
516
469
443
453
490
537
560
551
514
468
443
453
491
538
562
551
513
465
439
448
485
533
560
552
516
469
442
451
487
534
559
549
513
466
440
446
481
529
555
548
512
466
440
447
482
528
553
544
509
461
436
445
481
527
555
547
512
465
437
443
478
527
555
547
512
466
439
446
480
525
552
546
512
464
437
443
479
527
556
549
515
469
443
449
483
529
557
551
515
467
439
444
478
525
553
547
513
467
438
443
476
524
554
548
514
466
437
442
477
525
554
549
516
469
440
445
479
525
553
547
514
467
437
442
475
521
552
549
517
472
443
448
483
530
559
554
521
475
446
450
483
530
560
556
524
476
445
448
480
527
557
553
519
471
440
445
478
526
557
553
520
473
443
446
480
529
560
557
524
477
447
449
481
528
559
557
526
478
447
450
483
530
563
560
528
480
449
451
481
528
559
556
524
477
445
447
478
526
558
557
526
479
448
449
481
528
560
559
528
481
450
452
483
531
562
561
531
484
452
454
485
532
564
563
532
484
451
454
486
534
568
567
536
489
456
458
488
535
567
566
536
487
454
454
484
530
563
562
533
487
454
454
484
531
564
563
533
485
451
450
480
527
562
562
532
484
451
451
480
527
560
561
531
484
451
451
481
528
564
565
536
488
454
453
483
532
568
571
543
497
462
460
489
536
571
574
546
497
462
460
487
532
567
570
542
494
460
458
488
534
571
574
544
495
459
456
484
530
565
568
539
490
452
447
473
520
557
560
532
486
450
447
473
520
558
562
536
490
453
450
477
523
560
564
536
489
451
446
475
523
561
566
540
495
460
456
485
531
567
569
541
493
456
453
480
528
565
569
541
493
456
451
479
525
561
566
539
493
455
449
476
523
561
565
538
491
454
448
474
521
560
566
541
495
458
451
477
523
560
567
542
495
457
450
477
523
561
567
541
495
457
451
477
525
563
571
546
501
462
454
479
524
563
571
545
498
460
454
480
525
563
569
543
495
456
448
474
520
560
568
544
498
459
452
477
522
562
572
549
503
463
454
478
524
564
572
547
501
462
453
476
520
560
569
546
502
463
454
477
522
562
571
547
502
463
455
477
521
561
570
546
499
457
446
469
514
554
566
544
499
458
448
471
516
555
564
543
499
458
447
471
516
557
567
544
497
456
445
467
513
553
564
542
498
458
447
469
514
556
567
545
500
460
450
473
517
557
566
543
498
459
448
470
514
556
568
546
502
462
449
470
514
554
566
546
502
462
452
473
516
557
569
548
504
462
451
473
517
558
570
550
506
464
452
472
515
557
566
546
503
462
450
472
516
558
570
549
505
464
449
468
512
556
570
548
504
462
450
470
514
557
571
551
508
466
452
472
514
556
569
549
507
465
451
468
509
552
566
548
506
464
450
468
511
556
572
554
510
467
452
470
510
554
569
552
510
466
450
469
511
555
571
552
508
464
448
468
510
553
569
550
506
463
448
465
507
551
567
550
509
466
449
466
507
552
568
550
508
463
446
465
507
553
569
552
511
468
452
469
510
554
571
552
509
465
447
464
505
550
567
550
507
464
448
466
507
552
570
554
513
468
449
466
507
553
569
552
510
465
446
462
504
549
569
554
513
469
452
466
505
549
568
553
513
469
450
466
504
549
568
553
513
468
449
465
505
550
569
555
513
467
446
460
500
546
566
552
512
467
448
462
502
547
568
553
514
471
452
467
507
553
573
557
516
471
449
462
500
547
568
554
515
470
446
458
498
546
567
553
515
469
449
464
503
548
568
554
514
468
447
462
502
548
569
556
516
468
447
461
499
545
566
552
512
467
445
457
496
544
566
553
514
468
446
457
495
543
566
553
515
468
446
458
496
541
564
554
516
469
446
459
500
549
572
559
521
476
454
466
504
551
573
