80
500
453
340
248
231
282
399
497
520
473
359
267
247
297
415
514
538
492
379
284
263
312
431
531
554
506
393
298
278
328
446
547
569
524
410
314
293
342
460
562
586
541
428
332
310
357
474
576
601
557
443
347
323
368
484
587
612
568
454
357
335
380
495
599
624
581
467
370
346
392
507
611
636
594
481
382
357
402
517
620
647
604
490
391
366
409
524
627
654
613
502
402
376
419
534
637
665
626
515
415
387
430
544
649
676
637
526
425
398
439
553
657
685
644
533
432
403
444
558
664
693
655
545
442
413
452
565
669
699
661
552
448
417
455
568
674
706
668
558
455
426
465
577
682
712
676
567
463
434
473
585
692
724
689
582
476
442
478
589
696
730
695
588
483
449
485
597
706
739
704
597
488
453
488
598
707
742
708
603
498
463
497
605
714
749
716
607
497
462
497
606
716
752
718
611
504
468
503
612
722
758
726
621
512
475
508
616
725
761
729
625
517
480
513
620
730
768
739
636
527
489
521
627
738
777
747
644
536
497
529
634
745
784
754
652
543
503
535
640
750
789
760
657
547
506
538
644
756
798
770
669
558
515
544
648
759
802
774
672
560
518
546
650
762
805
776
676
564
520
547
649
759
800
773
673
562
521
549
650
761
805
778
678
567
523
550
651
765
810
783
684
572
527
553
654
765
811
785
688
576
531
557
657
770
815
789
690
577
531
555
653
767
815
792
696
583
535
560
658
772
819
797
701
588
541
564
661
776
822
798
702
587
538
560
657
771
818
795
699
583
534
555
650
766
817
796
701
585
534
558
654
768
816
797
704
590
537
557
652
768
820
800
706
590
538
558
653
768
820
802
711
595
543
562
656
773
826
806
714
597
544
563
656
774
827
808
716
599
545
563
657
775
828
810
720
603
547
563
654
770
825
808
717
599
542
558
649
767
823
808
720
602
547
563
653
772
829
813
723
605
548
563
654
772
828
813
724
606
549
565
653
772
830
816
729
612
554
568
657
774
832
818
732
614
556
570
657
774
832
817
731
612
552
565
653
773
831
818
733
615
555
565
650
769
830
816
731
611
550
563
649
768
828
817
733
614
551
562
648
768
829
818
735
614
550
559
644
764
827
815
733
612
548
559
642
761
824
814
733
613
548
557
639
758
821
811
730
611
545
554
636
756
821
812
731
612
547
555
636
758
823
815
736
616
550
557
637
758
825
817
737
616
550
558
640
761
829
822
745
625
558
564
644
765
834
828
750
629
559
565
642
763
831
825
747
624
552
557
633
753
821
816
740
620
550
554
630
751
822
818
742
621
550
555
631
752
822
817
742
622
550
552
626
746
816
814
740
618
546
549
622
743
816
814
741
621
548
548
621
742
815
813
739
616
541
543
616
737
810
808
736
613
538
537
609
731
807
807
736
615
539
539
610
732
808
808
738
618
541
539
610
731
808
808
738
617
542
542
613
736
814
816
748
628
551
548
617
738
815
817
747
626
549
546
614
734
810
812
744
624
545
541
608
729
807
810
743
620
540
535
603
725
804
808
741
620
539
534
600
722
802
808
744
622
539
532
595
716
796
799
735
615
532
526
591
713
795
800
734
612
528
521
585
705
785
790
727
607
524
517
580
703
785
791
728
608
525
518
582
705
789
796
734
614
528
520
583
704
788
795
735
616
532
523
586
708
793
801
741
621
536
527
589
710
795
804
745
625
540
529
587
706
790
798
739
620
533
521
579
700
786
797
736
615
527
516
575
695
782
792
734
615
527
513
571
691
778
790
734
615
527
512
567
686
776
790
734
615
526
512
569
688
775
787
730
611
520
504
559
679
769
784
730
612
521
505
560
679
768
783
729
610
518
502
556
676
766
780
727
610
519
503
556
674
766
782
728
611
518
501
555
674
766
784
732
614
521
502
555
672
765
782
732
615
521
502
553
671
763
781
732
616
522
502
553
670
763
782
732
614
518
499
549
666
759
776
726
609
514
494
546
663
757
776
727
610
513
492
541
657
753
774
727
611
515
493
542
660
757
778
728
610
512
488
536
652
750
773
728
612
514
491
537
653
750
771
725
610
510
487
533
648
746
769
725
611
513
488
534
650
748
773
728
614
514
488
531
643
741
765
722
608
506
480
523
637
737
762
718
605
503
477
520
633
732
757
716
605
504
477
519
633
735
761
720
607
505
477
518
631
734
761
719
607
505
478
518
631
733
760
719
608
504
475
516
630
733
761
720
607
502
471
510
622
725
754
714
603
499
469
509
621
725
756
718
608
504
472
507
617
721
751
715
606
500
468
505
616
721
751
714
605
500
468
505
615
719
751
715
608
503
471
505
614
718
751
716
608
502
469
505
616
722
754
719
610
503
467
502
612
718
750
714
606
498
465
500
609
716
749
715
608
499
463
496
604
711
746
713
606
496
458
490
597
705
740
707
601
493
456
489
597
706
743
711
605
497
458
488
593
700
736
705
601
492
453
484
591
701
739
709
606
496
456
487
593
702
739
708
604
495
457
486
589
699
740
711
607
496
455
482
586
698
737
709
607
497
456
483
585
695
736
707
606
495
452
479
582
693
734
706
605
493
448
476
580
691
734
707
605
491
448
476
578
689
732
706
606
493
446
472
574
687
732
705
605
493
448
472
572
684
728
702
604
490
444
468
569
684
729
704
606
492
445
469
568
683
730
705
605
489
441
464
563
677
723
698
599
485
437
460
558
674
722
699
602
488
439
461
559
676
724
701
605
489
439
460
557
673
723
701
605
489
440
462
560
677
726
702
606
490
439
459
556
673
723
702
607
489
437
456
550
666
717
697
603
487
436
456
550
666
718
699
606
489
436
455
549
666
717
698
605
486
432
451
545
663
717
698
605
488
435
451
542
660
715
696
603
487
433
450
542
662
717
701
609
490
434
450
542
659
715
698
609
490
432
447
537
654
709
692
603
485
429
445
536
655
711
696
607
488
431
445
534
652
710
696
607
489
429
442
530
648
707
693
606
488
428
440
527
645
704
690
603
486
427
440
526
646
707
694
609
489
428
440
525
644
705
692
606
486
425
436
521
640
703
692
608
489
427
437
522
641
704
692
607
486
423
432
517
637
701
690
606
486
422
432
516
638
702
692
609
490
425
434
516
635
699
689
606
486
421
430
512
634
698
688
606
487
422
431
511
632
698
690
610
488
421
429
511
633
699
690
610
489
423
430
510
558
576
571
553
523
500
500
517
546
566
564
546
516
494
494
509
537
556
554
539
510
488
487
502
531
553
554
541
514
494
494
511
542
566
569
555
529
510
510
525
554
577
577
561
533
513
514
529
557
578
577
560
532
508
507
521
548
569
567
550
521
495
493
507
535
555
555
538
507
484
483
497
523
543
542
525
496
473
471
485
512
534
535
519
490
468
467
482
510
534
537
522
494
472
471
486
514
538
540
527
501
479
478
494
523
545
548
533
505
483
483
499
527
550
552
538
510
488
486
502
530
553
556
543
516
493
492
507
535
558
560
546
519
496
495
509
537
562
565
551
523
498
496
511
539
562
565
551
525
501
499
513
540
562
564
550
523
498
494
508
536
560
563
547
519
494
490
504
531
555
557
543
514
490
487
502
529
555
559
545
519
494
490
503
530
554
556
540
512
488
484
497
524
549
552
538
509
483
479
493
522
547
549
534
506
480
476
488
515
541
545
531
503
477
471
485
514
542
545
531
504
478
472
485
513
539
544
530
503
478
473
487
515
542
547
534
507
482
476
487
512
538
541
527
500
476
471
484
510
537
544
532
505
478
473
484
509
534
539
526
499
475
469
482
508
536
543
530
504
477
472
485
513
541
546
533
507
481
476
488
514
542
547
534
507
480
475
488
515
542
548
535
509
483
478
490
515
542
549
537
511
483
476
488
513
540
546
534
507
479
472
484
510
539
547
534
507
480
474
488
515
544
550
537
510
482
474
485
510
537
545
534
506
479
471
484
508
535
541
529
503
477
471
482
506
534
542
531
506
478
469
480
504
533
541
528
502
473
464
476
501
531
540
528
501
473
464
475
501
530
538
526
499
470
461
471
495
525
534
524
498
469
460
472
497
525
533
521
496
469
461
472
496
525
534
521
494
466
456
467
492
521
531
519
492
461
451
461
485
514
525
513
486
457
446
457
481
508
516
504
478
449
440
452
476
505
516
504
479
450
440
452
478
507
519
507
481
453
444
456
482
513
524
512
488
460
451
462
486
517
528
516
490
459
447
457
481
510
522
510
485
457
445
454
477
504
516
505
480
450
438
448
471
500
510
500
475
445
434
443
466
494
506
497
475
446
434
444
469
499
511
501
478
450
440
450
474
504
518
510
484
454
444
455
481
511
523
515
492
464
452
462
487
517
529
519
495
465
454
465
489
518
529
518
494
464
452
462
487
519
531
522
498
467
453
462
487
519
532
524
500
470
456
466
490
523
538
529
506
477
464
472
496
528
543
537
517
487
475
484
508
539
554
548
527
497
483
491
516
547
560
552
528
496
481
489
512
541
554
544
521
491
478
485
508
540
555
548
526
495
480
487
507
537
551
543
520
490
476
484
508
541
557
551
530
499
483
489
512
544
560
555
533
503
488
495
518
548
565
559
535
503
488
494
516
545
561
552
529
497
480
487
509
540
556
550
526
494
478
483
503
532
547
541
520
488
470
474
495
527
545
540
520
490
473
478
499
532
550
546
525
496
480
485
504
535
553
549
528
497
480
485
507
539
558
554
533
501
483
488
507
537
554
549
529
500
482
485
503
532
548
543
523
492
474
478
497
527
546
541
521
489
469
471
489
518
538
536
517
489
472
474
492
521
541
538
519
488
468
469
487
518
539
537
519
489
470
472
491
521
540
538
521
493
474
475
492
522
542
541
524
493
473
475
493
523
543
543
525
495
474
474
492
522
542
540
523
494
475
478
495
526
548
547
529
501
482
483
502
533
554
551
532
503
485
489
508
539
561
561
545
517
496
498
517
547
568
567
549
519
499
501
520
549
570
570
553
524
503
504
523
552
574
574
558
529
507
508
526
555
576
575
560
532
510
509
527
555
576
576
559
531
509
508
525
554
575
575
560
532
510
511
528
555
574
573
555
527
505
506
523
551
572
574
559
530
506
504
519
545
565
565
549
521
496
491
504
531
553
555
540
513
491
489
504
532
555
556
541
513
491
488
501
527
548
550
535
507
484
480
494
523
545
547
532
502
479
477
490
518
541
542
526
497
473
468
480
505
529
531
517
490
467
463
474
498
520
522
508
481
457
452
465
491
512
514
498
472
450
447
461
487
509
512
497
471
447
442
452
474
495
497
484
459
437
432
441
464
486
489
478
453
431
425
436
459
481
483
471
447
425
419
427
447
466
470
459
435
412
404
412
431
451
456
445
420
395
388
397
416
436
441
432
409
387
382
391
414
436
442
434
413
393
389
399
422
445
452
443
421
401
397
409
433
457
464
457
438
418
415
426
449
473
481
474
455
434
428
439
463
487
495
487
467
446
440
449
471
495
503
495
475
455
450
461
482
504
511
503
483
461
456
465
487
510
517
508
488
467
462
471
492
515
523
515
493
471
462
470
490
512
519
511
492
472
466
475
496
519
526
520
501
481
475
484
504
527
535
529
511
492
486
494
515
537
545
540
524
506
500
510
531
555
564
559
542
525
521
531
551
574
583
578
562
546
541
550
570
592
601
597
583
567
563
573
594
617
628
627
613
598
596
608
630
654
667
666
655
641
638
648
669
694
710
717
718
722
737
764
798
833
857
866
863
853
851
861
879
899
905
899
883
866
861
871
892
917
934
940
939
937
950
983
1023
1023
1023
1023
1023
1023
1023
1023
1023
1023
1023
1023
1023
1023
1023
1023
1023
1023
1023
1023
1023
1023
1023
1023
1023
1023
1023
1023
1023
1023
1023
1023
1023
1023
1023
1023
1023
1023
1023
1023
1023
1023
1023
1023
1023
1023
1023
1023
1023
1023
1023
1023
1023
1023
1023
1023
1023
1023
1023
1023
1023
1023
1023
1023
1023
1023
1023
1023
1023
1023
1023
1023
1023
1023
1023
1023
1023
1023
1023
1023
1023
1023
1023
1023
1023
1023
1023
1023
1023
1023
1023
1023
1023
1023
1023
1023
1023
1023
1023
1023
1023
1023
1023
1023
1023
1023
1023
1023
1023
1023
1023
1023
1023
1023
1023
1023
1023
1023
1023
1023
1023
1023
1023
1023
1023
1023
1023
1023
1023
1023
1023
1023
1023
1023
1023
1023
1023
1023
1023
1023
1023
1023
1023
1023
1023
1023
1023
1023
1023
1023
1023
1023
1023
1023
1023
1023
1023
1023
1023
1023
1023
1023
1023
1023
1023
1023
1023
1023
1023
1023
1023
1023
1023
1023
1023
1023
1023
1023
1023
1023
1023
1023
1023
1023
1023
1023
1023
1023
1023
1023
1023
1023
1023
1023
1023
1023
1023
1023
1023
1023
1023
1023
1023
1023
1023
1023
1023
1023
1023
1023
1023
1023
1023
1023
1023
1023
1023
1023
1023
1023
1023
1000
873
747
611
448
252
136
74
42
24
14
8
6
4
3
2
2
2
1
1
1
1
1
1
1
1
1
1
1
1
1
1
1
1
1
1
1
1
1
1
1
1
1
1
1
1
1
1
1
1
1
1
1
1
1
1
1
1
1
1
1
1
1
1
1
1
1
1
1
1
1
1
1
1
1
1
1
1
1
1
1
1
1
1
1
1
1
1
1
1
0
1
1
1
1
1
1
1
1
1
1
1
1
1
0
1
1
1
1
1
1
1
1
1
1
1
1
1
1
1
1
1
1
1
1
1
1
1
1
1
1
1
1
1
1
1
1
0
1
1
1
1
1
1
1
1
1
1
1
1
1
1
1
1
1
0
1
1
1
1
1
0
1
1
1
1
1
1
1
1
1
1
1
1
1
1
1
0
1
0
1
0
1
1
1
1
1
1
1
1
1
1
1
1
1
1
1
1
1
0
1
1
1
1
1
1
1
1
30
220
490
782
1023
1023
1023
1023
1023
1023
1023
1023
1023
1023
1023
1023
1023
1023
1023
1023
1023
1023
1023
1023
1023
1023
1023
1023
1023
1023
1023
1023
1023
1023
1023
1023
1023
1023
1023
1023
1023
1023
1023
1023
1023
1023
1023
1023
1023
1023
1023
1023
1023
1023
1023
1023
1023
1023
1023
1023
1023
1023
1023
1023
1023
1023
1023
1023
1023
1023
1023
1023
1023
1023
1023
1023
1023
1023
1023
1023
1023
1023
1023
1023
1023
1023
1023
1023
1023
1023
1023
1023
1023
1023
1023
1023
1023
1023
1023
1023
1023
1023
1023
1023
1023
1023
1023
1023
1023
1023
1023
1023
1023
1023
1023
1023
1023
953
866
781
698
618
544
474
409
351
299
253
211
174
143
115
93
77
66
60
55
51
50
50
51
52
52
51
46
38
30
21
12
7
5
3
2
2
2
1
1
1
1
1
1
1
7
15
25
37
50
65
79
93
107
120
136
150
164
179
193
203
211
215
217
218
219
219
217
212
204
192
180
167
152
137
117
94
68
38
20
11
6
4
2
2
1
1
1
1
1
1
1
1
1
1
1
1
1
1
1
1
1
1
1
1
1
1
1
1
1
1
1
1
1
1
1
1
1
1
1
1
1
1
1
1
1
1
1
1
1
1
1
1
1
1
1
1
1
0
1
1
0
1
1
1
1
1
1
1
1
1
1
1
1
1
1
1
0
1
1
1
1
1
1
1
1
1
1
1
1
1
1
1
1
1
1
0
1
0
1
1
1
1
1
1
1
1
1
1
1
1
1
1
1
1
1
1
1
1
1
1
1
1
1
1
1
1
0
1
1
1
1
1
1
1
1
1
1
1
1
1
4
24
50
77
105
133
162
191
217
246
278
313
352
396
441
486
532
579
628
679
730
784
838
890
941
991
1023
1023
1023
1023
1023
1023
1023
1023
1023
1023
1023
1023
1023
1023
1023
1023
1023
1023
1023
1023
1023
1023
1023
1023
1023
1023
1023
1023
1023
1023
1023
1023
1023
1023
1023
1023
1023
1023
1023
1023
1023
1023
1023
1023
1023
1023
1023
1023
1023
1023
1023
1023
1023
1023
1023
1023
1023
1023
1023
1023
1023
1023
1023
1023
1023
1023
1023
1023
1023
1023
1023
1023
1023
1023
1023
1023
1023
1023
1023
1023
1023
1023
1023
1023
1023
1023
1023
1023
968
890
811
733
655
573
485
389
287
175
95
52
29
17
10
6
5
661
1023
1023
1023
1023
1023
1023
1023
1023
1023
1023
1023
1023
1023
1023
1023
1023
1023
1023
1023
1023
1023
1023
1023
1023
1023
1023
1023
1023
1023
1023
1023
1023
1023
1023
1023
1023
1023
1023
1023
1023
1023
1023
1023
1023
1023
1023
1023
1023
1023
1023
1023
1023
1023
1023
1023
1023
1023
1023
1023
1023
1023
1023
1023
1023
1023
1023
1023
1023
1023
1023
1023
1023
1023
1023
1023
1023
1023
1023
1023
1023
1023
1023
1023
1023
1023
1023
1023
1023
1023
1023
1023
1023
1023
1023
1023
1023
1023
1023
1023
1023
1023
1023
1023
1023
1023
1023
1023
1023
1023
1023
1023
1023
1023
1023
1023
1023
1023
1023
1023
1023
1023
1023
1023
1023
1023
1023
1023
1023
1023
1023
1023
1023
1023
1023
1023
1023
1023
1023
1023
1023
1023
1023
1023
1023
1023
1023
1023
1023
1023
1023
1023
1023
1023
1023
1023
1023
1023
1023
1023
1023
1023
1023
1023
1023
1023
1023
1023
1023
1023
1023
1023
1023
1023
1023
1023
1023
1023
1023
1023
1023
1023
1023
1023
1023
1023
1023
1023
1023
1023
1023
1023
1023
1023
1023
1023
1023
1023
1023
1023
1023
1023
1023
1023
1023
1023
1023
1023
1023
1023
1023
1023
1023
1023
1023
1023
1023
1023
1023
1023
1023
1023
1023
1023
1023
1023
1023
1023
1023
1023
1023
1023
1023
1023
1023
1023
1023
1023
1023
1023
1023
1023
1023
1023
1023
1023
1023
1023
1023
1023
1023
1023
1023
1023
1023
1023
1023
1023
1023
1023
1023
1023
1023
1023
1023
1023
1023
1023
1023
1023
1023
1023
1023
1023
1023
1023
1023
1023
1023
1023
1023
1023
1023
1023
1023
1023
1023
1023
1023
1023
1023
1023
1023
1023
1023
1023
1023
1023
1023
1023
1023
1023
1023
1023
1023
1023
1023
1023
1023
1023
1023
1023
1023
1023
1023
1023
1023
1023
1023
1023
1023
1023
1023
1023
1023
1023
1023
1023
1023
1023
1023
1023
1023
1023
1023
1023
1023
1023
1023
1023
1023
1023
1023
1023
1023
1023
1023
1023
1023
1023
1023
1023
1023
1023
1023
1023
1023
1023
1023
1023
1023
1023
1023
1023
1023
1023
1023
1023
1023
1023
1023
1023
1023
955
500
266
144
79
44
25
15
9
6
4
3
2
2
2
1
1
1
1
1
1
1
1
1
1
1
1
1
1
1
1
1
1
1
1
1
1
1
1
1
1
1
1
1
1
1
1
1
1
1
1
1
1
1
1
1
1
1
1
1
1
1
1
1
1
1
1
1
1
1
0
1
1
1
1
1
1
1
1
1
1
1
1
1
1
1
1
1
1
1
1
1
1
1
1
1
1
1
1
1
1
1
1
1
1
1
1
1
1
1
1
1
1
1
1
1
1
1
1
1
1
1
1
1
1
1
1
1
1
1
1
1
1
1
1
1
0
1
1
1
1
1
1
0
0
1
1
1
1
1
1
0
1
1
1
1
1
1
1
1
1
1
1
1
0
1
1
1
1
1
1
1
1
1
1
1
1
1
1
1
1
1
1
1
1
1
1
1
0
1
1
1
1
1
1
1
1
1
1
1
1
1
1
1
1
1
1
1
1
1
1
0
0
1
1
1
1
1
1
1
1
1
1
1
1
1
1
1
1
1
1
1
1
1
1
1
0
1
1
1
0
1
1
1
1
1
0
1
1
1
1
1
1
1
1
1
1
1
1
1
1
1
1
1
1
1
1
1
1
0
0
1
1
0
0
1
1
1
1
1
0
1
0
1
0
1
1
1
1
1
1
1
1
0
1
0
1
1
1
1
1
1
0
1
1
1
1
1
1
1
1
1
1
1
1
1
1
1
1
1
1
1
1
1
1
1
1
1
0
1
1
0
0
1
1
0
1
0
1
1
1
1
1
1
1
1
1
1
1
1
1
1
1
1
1
1
1
0
1
1
1
1
1
1
1
0
1
1
1
0
1
1
1
0
1
0
1
1
1
1
1
1
1
1
0
1
1
1
1
1
1
1
1
1
1
0
1
1
0
1
1
0
1
1
1
1
1
1
1
1
1
1
0
0
1
0
1
1
1
1
1
1
1
0
0
1
0
1
0
1
0
1
0
1
0
1
0
1
1
1
1
1
1
1
0
1
0
0
1
1
1
1
1
1
1
1
1
1
0
1
1
1
1
1
0
1
1
1
1
1
1
0
0
1
1
1
1
1
1
0
1
1
1
1
1
0
1
1
1
1
0
1
0
1
1
1
0
1
1
1
1
1
1
1
1
1
1
1
0
1
0
1
1
1
0
1
1
0
1
1
1
1
1
0
1
1
1
1
1
1
1
1
0
1
1
0
1
1
1
1
0
1
0
1
0
1
0
1
0
0
1
0
1
1
1
1
1
0
1
1
0
0
1
0
1
1
0
1
1
0
0
1
1
1
1
1
1
1
1
1
1
1
1
0
1
1
1
16
82
158
252
328
355
349
327
272
200
127
66
35
19
10
6
3
2
2
1
1
1
1
1
1
1
1
1
1
1
1
1
1
1
1
1
1
1
1
0
1
0
1
1
1
1
1
1
1
1
1
1
1
1
1
1
1
1
1
0
1
0
1
1
1
1
1
1
0
0
1
0
1
1
1
1
1
1
1
1
1
1
1
1
1
1
1
1
1
1
1
0
0
1
1
0
1
0
0
1
1
1
1
1
1
0
0
1
1
1
1
1
1
1
1
0
1
1
1
1
1
1
1
1
1
1
1
1
1
1
1
1
1
1
1
1
1
1
1
1
1
1
1
1
1
1
1
26
77
120
148
164
180
214
250
285
308
328
353
355
324
280
247
239
237
235
236
232
224
196
155
139
140
145
151
147
144
154
164
173
180
173
169
180
225
278
341
394
417
424
438
436
402
344
306
289
264
227
188
176
185
180
181
251
331
403
466
490
493
490
497
504
513
518
504
473
457
434
399
388
395
391
360
336
323
313
293
268
250
232
213
192
182
172
175
193
203
207
211
212
198
185
193
216
246
287
319
328
327
326
322
328
333
339
349
358
346
323
311
294
264
234
226
239
266
282
288
286
291
311
330
336
343
357
390
438
469
473
466
467
473
477
492
512
528
552
573
569
549
543
536
547
558
545
560
584
597
603
608
625
596
520
446
380
340
336
353
376
395
393
399
413
417
393
356
353
362
365
371
395
420
441
443
450
459
470
489
496
490
495
516
541
546
563
593
613
626
633
626
616
593
571
552
545
548
562
567
572
575
575
583
583
583
595
618
632
646
639
629
623
622
639
649
643
646
647
629
619
630
641
641
644
655
654
650
664
690
708
715
720
724
739
746
762
805
854
904
954
1019
1023
1023
1023
1023
1023
996
893
806
721
646
586
556
540
536
532
533
531
547
573
593
609
620
641
649
662
677
681
686
699
707
705
718
732
721
698
663
654
677
704
728
742
750
772
801
829
848
870
893
903
924
944
926
897
889
901
918
934
940
941
944
957
981
975
934
922
943
956
964
978
980
979
976
972
976
977
972
970
976
972
958
956
972
964
934
913
905
910
910
883
872
870
848
817
797
777
763
752
753
753
748
737
724
713
717
723
728
742
766
753
736
754
790
817
839
849
835
816
804
797
789
784
800
821
834
823
817
817
793
777
794
807
816
819
818
804
766
734
719
725
735
742
742
748
755
740
727
723
714
712
734
760
790
814
811
795
787
789
794
797
792
759
741
743
736
719
728
735
740
748
761
756
745
727
694
666
647
625
634
647
646
654
654
666
670
659
659
661
662
656
666
695
704
694
690
688
699
719
720
724
746
756
753
716
680
685
720
757
779
783
777
776
772
789
796
798
793
759
744
756
773
782
789
815
851
870
854
829
807
807
822
845
855
850
841
836
839
838
852
872
891
901
902
907
904
913
918
925
919
919
938
956
978
1017
1023
1023
1011
1007
1017
1023
1023
1023
1021
1008
996
1010
1023
1023
1023
1023
1023
1023
1023
1023
1023
1023
1023
1023
1023
1014
1002
996
990
990
992
995
1000
1014
1009
994
998
1023
1016
978
967
974
972
951
934
946
949
935
914
895
893
887
876
877
886
894
903
932
951
951
949
938
914
889
882
893
904
889
866
848
844
858
866
862
841
816
811
831
850
843
830
839
855
857
856
845
821
814
835
861
883
888
879
861
853
866
872
876
895
893
868
864
869
880
889
889
886
879
889
907
904
893
901
904
902
905
912
917
899
879
868
864
872
867
862
864
865
846
840
850
851
856
867
869
876
888
880
878
915
969
1023
1023
1023
1023
1023
1023
1011
940
867
788
694
629
612
604
591
578
574
601
634
643
660
670
668
659
663
669
679
702
703
691
690
697
698
692
686
674
613
545
527
521
507
503
507
526
560
589
602
611
617
630
648
656
641
633
646
677
686
697
725
742
752
769
774
786
803
808
793
780
772
758
752
788
845
871
872
875
865
858
871
881
878
888
896
899
919
935
911
897
909
911
916
940
957
958
959
982
1005
1014
1016
1008
984
966
994
1021
1020
1023
1023
1023
1023
1023
1023
1023
1023
1023
1023
1023
1023
1019
1023
1023
1023
1023
1023
1023
1023
1023
1023
1023
1021
1023
1007
970
932
909
903
905
910
916
928
939
943
926
892
858
839
838
848
862
860
861
865
875
876
878
896
915
915
898
894
893
889
883
878
880
880
867
868
867
874
887
904
904
888
871
863
866
884
888
883
895
915
914
910
921
929
912
880
881
892
907
894
878
880
880
869
856
832
808
794
792
813
836
841
832
836
864
874
862
827
812
810
801
790
804
828
828
808
793
790
795
799
785
780
786
785
770
742
732
747
753
739
723
703
693
697
704
705
717
737
748
747
744
754
758
740
717
696
682
681
690
702
729
742
740
741
745
754
752
755
771
791
797
786
784
806
814
821
831
836
830
817
794
794
807
821
824
832
827
807
798
803
805
806
810
821
826
833
828
834
843
834
836
850
846
843
852
850
861
895
911
907
899
895
905
908
896
884
870
880
899
902
904
906
889
872
862
870
883
902
909
916
930
935
923
893
879
873
867
864
873
874
885
900
915
935
933
902
879
886
920
951
959
955
947
950
951
950
948
954
960
961
953
947
953
955
944
924
909
913
917
942
976
994
995
967
942
924
911
913
911
902
899
888
885
879
888
901
895
892
892
892
892
899
915
918
887
863
839
851
884
926
989
1023
1023
1023
1023
1023
1023
1023
1023
1023
992
925
864
814
776
740
721
716
722
759
811
844
849
832
810
794
764
729
708
688
675
672
675
688
697
693
689
702
714
721
731
737
743
734
725
715
722
758
775
786
791
792
794
793
803
833
872
900
897
875
856
861
852
829
801
782
768
773
792
816
839
851
849
854
845
829
825
835
851
856
862
864
867
885
903
904
897
871
855
859
873
874
881
895
916
953
972
960
940
921
917
926
935
943
949
929
905
907
921
938
964
980
964
929
914
914
928
942
949
937
933
940
954
944
922
912
904
907
915
905
876
853
854
871
869
855
850
850
853
838
826
821
819
823
819
801
792
797
805
816
826
836
841
842
819
804
809
821
827
830
836
831
802
774
771
766
767
794
807
808
790
778
785
810
829
820
813
819
824
816
805
796
795
795
798
790
776
789
816
819
809
806
795
803
819
829
845
851
838
812
785
781
788
777
781
816
859
858
837
827
817
813
811
811
805
806
810
806
785
760
773
788
798
810
822
838
830
807
790
792
807
817
819
831
829
826
830
820
829
847
846
832
814
791
795
804
815
805
805
812
808
801
810
833
845
836
826
804
775
765
781
800
812
814
812
797
802
819
831
834
834
815
780
755
755
746
749
779
805
822
826
826
803
789
778
772
779
780
769
763
777
785
799
798
760
732
752
784
806
796
760
752
763
771
760
752
757
782
771
766
782
797
802
814
817
792
782
765
747
747
758
767
774
765
759
768
760
747
745
751
753
754
734
701
685
687
681
670
668
666
664
673
689
709
693
665
635
617
612
607
616
621
616
626
637
625
603
581
558
554
574
589
612
620
613
600
598
604
606
603
586
553
553
572
598
617
600
576
555
557
558
560
566
576
573
566
574
578
591
642
708
762
819
886
948
979
973
936
873
805
741
673
606
552
508
484
466
462
478
508
521
515
520
541
556
587
607
612
600
592
583
569
582
604
602
594
588
590
572
573
585
584
586
584
575
577
593
604
586
563
554
569
587
572
570
566
557
552
552
550
551
545
557
565
573
589
613
625
631
644
643
622
614
629
641
659
680
682
673
663
645
640
654
669
666
640
619
604
598
619
652
672
681
674
664
667
677
685
693
693
677
679
690
692
700
719
748
768
777
775
773
742
713
723
730
732
727
718
711
717
732
738
745
751
748
742
735
728
717
710
704
693
677
673
681
688
676
665
660
668
689
695
678
665
651
626
611
616
631
654
673
679
669
668
666
643
629
623
622
632
661
685
692
679
674
683
693
691
682
673
675
670
669
665
647
636
650
678
697
707
713
715
705
681
660
659
655
665
666
634
599
611
637
666
678
685
682
665
667
675
679
663
642
624
618
623
618
632
634
626
608
588
565
562
570
581
593
586
569
557
545
526
514
514
524
542
540
545
554
556
555
552
546
543
561
579
617
637
637
646
671
695
700
686
678
678
661
630
631
656
660
660
659
667
657
632
631
636
638
632
634
628
608
604
628
650
635
621
612
607
603
604
634
665
661
640
617
592
585
597
602
597
601
591
584
554
535
549
569
574
561
560
567
574
583
604
603
587
556
537
516
499
506
506
511
527
537
533
532
516
511
504
505
518
544
544
535
533
533
520
508
516
519
509
511
513
525
555
573
572
564
561
542
531
542
547
546
557
564
558
550
554
573
578
563
563
563
551
554
546
536
554
560
562
558
551
553
561
564
555
553
564
558
575
610
613
602
593
582
574
570
556
555
563
552
538
521
509
521
531
529
526
528
535
537
526
525
538
548
570
598
644
714
801
867
906
913
889
853
804
733
667
624
569
519
482
440
422
432
452
469
475
482
485
490
502
520
541
531
503
499
505
492
492
500
492
490
490
492
495
499
507
505
510
512
484
464
482
500
496
489
487
496
498
512
519
505
496
490
494
497
484
473
470
479
479
496
528
550
556
559
571
581
575
583
590
590
583
568
561
555
554
551
551
566
602
629
626
611
616
609
590
575
586
606
613
606
626
642
651
662
665
673
696
727
735
732
720
698
709
751
767
758
750
746
728
707
678
674
689
685
673
670
676
698
691
666
640
617
603
586
579
579
595
606
601
579
551
536
548
561
558
529
495
488
493
497
505
521
508
493
484
470
465
477
482
493
500
492
506
501
492
488
481
474
470
467
472
482
487
495
507
512
501
504
506
496
487
487
480
494
501
491
492
520
548
566
561
541
542
548
522
506
507
515
541
559
562
559
560
550
547
536
523
519
522
522
522
537
564
588
603
597
578
555
549
563
569
549
543
544
548
551
558
566
554
555
548
538
531
536
546
562
580
598
604
592
571
555
564
575
571
570
579
584
575
569
575
571
555
556
581
588
585
587
600
616
615
599
583
579
570
552
541
539
560
594
635
636
604
591
598
588
580
584
572
565
565
576
583
583
595
600
602
588
577
570
571
585
586
593
598
589
583
589
616
629
623
611
595
576
552
565
585
598
597
594
617
615
601
600
616
627
640
636
616
602
611
621
612
613
605
590
583
586
577
569
591
609
612
600
592
594
584
576
577
590
597
586
560
553
554
567
567
566
568
580
589
594
585
575
568
559
561
565
570
587
604
624
615
594
580
567
556
551
550
548
551
579
581
552
545
559
585
604
606
597
585
570
564
570
590
602
584
571
566
554
549
561
573
593
596
577
563
536
527
528
520
505
517
514
510
504
504
524
545
537
527
541
565
587
618
670
730
790
850
906
938
917
872
812
764
724
678
615
564
525
506
501
483
495
520
541
557
556
538
550
574
584
580
571
560
557
567
561
550
558
569
571
566
570
578
569
548
542
543
546
548
542
524
517
526
519
509
525
545
543
540
514
505
514
512
536
552
553
559
572
578
574
564
554
535
536
553
560
568
575
584
594
589
580
586
591
596
602
595
603
629
609
576
580
611
618
617
624
629
634
631
621
621
623
623
626
639
654
668
676
671
636
606
602
620
631
631
631
628
644
676
699
680
648
628
611
607
592
583
574
575
587
589
584
582
570
547
543
545
535
516
527
544
536
531
516
493
483
501
512
503
486
473
473
471
465
463
458
451
451
466
469
471
476
478
486
500
514
524
523
519
513
483
458
458
466
478
480
480
492
508
499
512
514
518
517
509
499
495
503
524
532
515
506
522
532
518
506
513
525
532
532
545
548
542
534
520
505
501
512
536
547
543
527
508
500
490
489
507
525
525
495
475
469
472
476
493
512
521
524
525
521
515
516
513
500
485
484
483
486
497
503
495
485
496
518
533
537
539
512
491
493
503
513
519
512
508
508
499
493
496
503
506
508
521
526
514
493
483
492
504
508
521
523
533
539
532
504
485
474
472
489
499
499
503
512
508
496
497
490
482
457
443
454
467
492
509
522
516
502
486
482
491
496
517
527
562
603
622
601
591
599
603
616
638
654
644
613
581
590
607
607
625
638
608
580
565
564
565
567
579
586
573
562
561
569
576
573
559
544
538
535
541
555
571
557
550
561
572
553
541
539
533
523
520
517
524
536
543
554
542
518
514
529
547
559
560
545
538
529
533
540
534
516
532
536
541
537
527
532
543
540
529
514
492
481
492
530
548
547
561
573
574
565
568
564
553
541
526
525
524
520
509
507
512
503
502
507
521
532
533
563
585
562
538
536
573
614
654
727
819
890
944
976
970
934
864
779
685
596
524
472
453
453
451
463
477
481
479
469
465
480
495
505
499
483
476
481
495
530
539
530
510
493
483
462
450
434
439
452
457
456
459
465
473
471
461
449
467
490
508
505
500
475
469
494
505
505
487
467
465
463
459
477
507
504
479
478
496
523
542
544
535
514
496
496
528
572
573
554
548
540
523
523
540
555
559
575
575
553
537
523
532
548
551
548
565
583
594
591
574
572
577
588
608
614
609
613
628
626
605
602
628
653
653
637
617
596
595
607
591
580
599
622
620
599
577
558
547
547
553
549
550
565
577
573
550
520
523
548
555
528
510
498
516
531
515
513
514
505
497
510
508
489
477
476
477
481
481
465
467
486
507
520
530
511
496
492
497
489
474
464
469
491
504
492
484
485
479
484
499
491
481
486
490
479
466
476
475
468
484
503
492
491
511
513
506
513
508
517
506
471
451
449
451
454
457
463
476
486
487
502
490
484
485
483
478
471
485
512
532
531
519
516
531
530
533
515
515
521
527
535
549
558
572
579
576
565
546
538
530
522
526
553
573
571
561
542
533
546
565
565
568
573
558
548
529
542
575
587
585
583
575
555
530
508
526
544
544
543
539
533
521
512
502
484
463
465
487
498
493
486
484
490
508
500
489
479
474
465
460
467
474
481
484
469
473
475
472
470
482
466
437
432
444
455
476
482
467
446
448
459
454
434
430
439
438
448
462
473
458
438
426
416
418
432
445
452
449
427
432
460
478
479
489
497
503
495
475
484
489
480
490
525
541
527
493
454
445
455
478
490
484
487
503
520
529
528
534
540
541
527
516
518
530
548
558
574
591
598
611
595
565
536
523
514
525
553
570
584
602
608
603
596
597
584
587
607
610
597
585
567
565
590
625
642
639
635
605
589
586
598
608
581
542
523
529
554
573
572
549
524
520
556
588
635
709
773
832
886
916
906
871
831
776
709
633
553
476
425
409
413
418
419
438
463
495
513
522
520
517
516
510
500
518
517
522
533
543
551
548
527
511
510
514
533
551
552
545
537
522
509
517
536
552
553
544
543
540
532
528
529
527
523
518
518
513
525
548
555
552
547
533
527
517
504
521
553
577
590
600
599
576
558
546
572
597
603
605
594
567
538
526
525
517
513
531
534
528
524
518
518
537
558
577
581
571
571
581
584
587
574
559
555
569
564
540
529
537
538
539
550
568
568
528
504
504
489
492
518
535
516
495
492
491
491
501
498
494
481
464
463
451
416
385
371
381
399
411
425
428
402
377
356
348
360
371
381
389
386
391
389
388
384
391
404
420
428
429
423
412
385
366
372
393
391
382
411
438
435
424
417
424
431
447
451
444
441
440
449
451
441
447
451
461
477
488
487
488
487
519
536
526
518
518
523
506
488
498
521
514
491
475
470
471
483
496
522
531
520
507
496
501
498
480
464
472
508
532
523
501
477
472
489
489
487
493
505
508
499
505
515
504
490
487
493
505
523
533
520
513
520
523
523
507
492
481
461
447
464
496
527
538
516
495
485
485
496
492
493
505
520
514
509
489
473
492
515
517
504
510
503
491
506
510
502
495
494
495
503
507
514
510
502
491
476
475
479
493
515
525
549
541
514
509
523
509
483
483
499
510
504
499
498
510
503
502
509
520
525
529
534
529
505
495
479
467
469
479
496
516
522
515
526
545
554
528
498
482
482
490
504
519
531
518
502
508
519
541
547
527
520
526
518
486
481
495
503
513
505
494
487
490
490
483
484
509
529
536
538
535
529
523
513
500
499
514
512
502
488
488
512
515
511
512
506
514
515
513
518
517
525
543
552
535
523
517
526
527
521
537
551
552
553
542
535
524
518
522
529
540
563
578
554
524
515
523
521
510
510
519
531
535
518
493
486
483
482
494
506
502
500
492
502
518
515
510
504
500
511
561
616
677
748
819
859
872
857
813
757
659
580
536
480
458
435
406
401
404
418
426
422
417
417
425
443
451
453
464
468
469
454
432
425
406
393
408
418
412
401
370
349
349
353
353
358
352
345
352
356
355
348
343
353
370
367
355
354
364
379
375
386
395
378
351
340
334
345
362
385
412
427
416
420
429
432
443
461
468
455
445
453
481
504
487
472
465
455
459
483
499
504
501
490
482
492
501
490
477
480
487
499
525
530
526
520
534
547
547
541
535
539
553
556
551
567
571
570
585
587
575
571
556
539
549
562
577
576
569
545
528
533
549
524
489
466
459
459
461
465
476
481
468
462
473
461
449
446
451
470
490
483
467
450
442
447
471
490
486
480
478
498
517
513
486
481
488
495
503
508
515
521
533
547
547
540
532
531
548
563
572
564
557
546
544
563
568
569
571
567
550
563
577
591
598
593
580
562
565
568
567
575
583
573
556
555
575
585
582
564
546
541
554
562
564
562
557
569
571
582
595
592
559
536
522
536
549
568
574
562
572
572
533
481
464
479
513
556
566
561
551
559
580
592
578
548
524
537
559
564
569
568
554
545
551
563
573
554
537
543
533
533
563
581
561
546
545
566
561
557
556
535
537
554
560
552
545
555
573
589
600
583
555
523
518
545
580
597
613
624
602
567
532
522
538
559
578
567
560
559
565
567
550
534
524
522
535
552
562
549
537
526
520
527
535
541
545
554
557
569
556
537
517
508
531
548
550
540
520
513
512
513
532
533
538
563
559
521
491
494
508
521
539
565
559
547
546
545
525
511
510
507
508
524
528
538
566
577
579
586
574
551
540
542
544
517
507
533
536
536
535
547
565
570
562
558
576
599
601
596
591
593
599
599
599
628
649
648
634
601
586
600
600
573
541
518
524
547
589
625
631
621
600
562
547
548
564
591
592
586
572
579
600
617
629
624
619
607
585
573
584
572
565
575
586
580
586
579
557
532
519
498
493
522
549
559
553
549
545
558
590
623
657
723
792
844
889
925
936
903
833
740
653
587
534
497
459
430
408
401
415
424
428
442
477
493
484
475
473
475
477
474
477
472
465
451
474
507
518
513
496
489
497
501
489
475
480
491
481
481
497
499
498
488
492
518
510
490
493
526
563
561
526
525
522
499
497
497
514
532
542
547
537
525
531
541
547
526
521
545
564
568
561
548
538
550
575
576
579
579
579
590
586
565
561
600
619
596
583
583
590
593
589
586
606
622
627
623
622
628
623
630
629
629
641
666
683
661
633
623
648
654
631
611
621
650
658
646
644
662
667
655
652
630
609
603
619
618
603
601
615
632
631
625
614
609
620
631
661
692
697
691
707
722
717
732
756
777
781
791
820
824
804
802
788
779
777
773
773
774
768
760
744
735
723
717
704
706
709
725
734
733
727
726
708
681
663
674
685
693
701
661
607
582
573
567
574
582
575
555
548
550
542
538
530
531
527
521
509
503
492
491
493
491
470
436
404
413
432
432
416
408
422
450
470
467
452
444
444
431
408
384
371
380
393
403
397
386
387
385
376
371
380
395
392
393
377
359
351
353
354
345
380
399
393
387
375
368
360
347
334
332
342
356
360
352
347
350
333
319
325
344
359
380
389
381
376
356
344
344
348
369
374
350
351
363
370
377
375
364
348
333
328
333
338
332
339
357
389
394
366
326
298
312
338
353
343
334
362
357
338
352
392
426
420
394
380
377
375
365
368
348
323
362
434
493
473
456
482
519
515
489
474
495
491
511
557
546
546
563
541
470
375
282
191
122
78
80
94
56
30
17
10
6
4
3
2
2
1
1
1
1
1
1
1
1
1
1
1
1
1
1
1
1
1
1
1
1
1
1
1
1
1
1
1
1
1
1
1
9
51
99
143
183
218
247
272
290
302
311
321
334
348
361
370
372
360
341
326
315
304
294
278
253
219
181
143
101
54
29
16
9
5
3
2
2
1
1
1
1
1
1
1
1
1
1
1
1
1
1
1
1
1
1
1
1
1
1
1
1
1
1
1
1
1
1
1
1
1
1
1
1
1
1
1
1
1
1
1
1
1
1
1
0
1
1
1
1
1
1
1
1
1
1
1
1
1
1
1
1
1
1
0
1
1
1
1
1
1
1
1
1
1
1
1
1
1
1
1
1
1
0
1
1
1
1
1
1
1
1
1
1
1
1
1
1
1
1
1
1
1
1
1
1
0
1
1
1
1
1
1
1
1
1
1
1
1
1
85
257
451
654
859
1023
1023
1023
1023
1023
1023
1023
1023
1023
1023
1023
1023
1023
1023
1023
1023
1023
1023
1023
1023
1023
1023
1023
1023
1023
1023
1023
1023
1023
1023
1023
1023
1023
1023
1023
1023
1023
1023
1023
1023
1023
1023
1023
1023
1023
1023
1023
1023
1023
1023
1023
1023
1023
1023
1023
1023
1023
1023
1023
1023
1023
1023
1023
1023
1023
1023
1023
1023
1023
1023
1023
1023
1023
1023
1023
1023
1023
1023
1023
1023
1023
1023
1023
1023
1023
1023
1023
1023
1023
1023
1023
1023
1023
1023
1023
1023
1023
1023
1023
1023
1023
1023
1023
1023
1023
1023
1023
1023
1023
1023
1023
1023
1023
1023
1023
1023
1023
1023
1023
1023
1023
1023
1023
1023
1023
1023
1023
1023
1023
1023
1023
1023
1023
1023
1023
1023
1023
1023
1023
1023
1023
1023
1023
1023
1023
1023
1023
1023
1023
1023
1023
1023
1023
1023
1023
1023
1023
1023
1023
1023
1023
1023
1023
1023
1023
1023
1023
1023
1023
1023
1023
1023
1023
1023
1023
1023
1023
1023
1023
978
823
669
522
382
253
141
77
43
24
14
9
6
4
3
2
2
2
1
1
1
1
1
1
1
1
1
1
1
1
1
1
1
1
1
1
1
1
1
1
1
1
1
1
1
1
1
1
1
1
1
1
1
1
1
1
1
1
1
1
1
1
1
1
1
1
1
1
1
1
1
1
1
1
1
1
1
1
1
1
1
1
1
1
1
1
1
1
1
1
1
1
1
1
1
1
1
1
1
1
1
1
1
1
1
1
1
1
1
1
1
1
1
1
1
1
1
1
1
1
1
1
1
1
1
1
1
1
1
1
1
1
1
1
0
1
1
1
1
1
1
0
1
1
1
1
1
1
1
1
1
1
1
1
1
1
1
1
1
1
1
1
1
1
1
1
0
1
1
1
0
1
1
1
1
1
1
1
1
1
1
1
0
1
1
1
1
1
1
1
1
1
1
1
1
1
0
1
0
1
1
1
1
1
1
1
1
1
1
1
1
1
1
1
1
1
1
1
1
1
0
1
0
1
1
1
1
1
0
1
1
1
1
1
1
1
1
1
1
1
1
1
1
1
1
1
1
1
0
1
0
1
0
1
1
1
1
1
1
1
1
1
1
1
0
0
1
1
1
1
1
0
1
1
1
1
1
1
0
1
1
1
