1
1
529
541
533
508
478
465
472
495
526
540
533
510
481
469
475
496
527
541
534
511
481
468
474
496
527
541
536
514
485
472
479
503
533
544
538
514
483
469
475
496
526
541
534
509
479
464
469
489
518
532
528
507
478
465
471
493
523
537
530
509
480
466
471
492
520
534
528
504
472
456
460
481
511
525
520
499
470
454
458
479
509
526
522
501
472
458
463
483
513
526
521
498
466
451
456
477
507
522
517
497
470
457
463
484
515
532
528
507
477
462
466
487
520
539
535
514
485
471
475
495
526
540
535
515
486
472
477
497
529
547
544
525
495
480
484
505
537
553
547
526
494
477
480
501
532
549
545
525
494
479
482
502
532
547
542
520
489
472
474
494
524
539
533
513
483
468
472
491
520
536
530
507
478
462
466
486
517
533
527
505
475
459
462
481
512
529
525
504
475
459
463
486
520
537
533
515
486
470
474
494
524
540
536
516
485
466
469
488
518
535
530
509
477
460
463
484
515
533
528
508
478
461
463
482
512
528
523
501
470
449
450
468
498
514
511
492
461
441
445
464
493
511
506
485
453
434
434
450
478
494
489
468
436
415
414
430
457
474
471
451
419
400
400
415
442
458
455
437
406
387
388
405
433
449
446
429
398
377
376
392
420
438
437
419
389
369
369
386
415
434
433
414
384
364
363
379
406
425
424
409
382
363
361
376
406
428
429
414
388
371
372
389
416
436
438
424
399
382
381
396
423
442
443
429
404
386
386
401
430
450
452
439
415
397
395
411
438
457
459
446
419
401
401
417
444
464
466
453
430
413
412
426
451
468
467
452
426
407
404
416
439
456
456
443
417
397
395
405
428
445
448
436
412
394
392
403
425
440
439
425
400
380
376
385
403
417
417
406
385
368
365
374
392
405
403
388
366
350
348
357
377
391
392
381
361
347
346
360
386
409
422
428
430
440
463
494
528
552
560
559
557
567
596
640
695
749
796
837
875
917
970
1023
1023
1023
1023
1023
1023
1023
1023
1023
1023
1023
1023
1023
1023
965
862
760
664
573
490
427
393
401
456
550
672
786
903
1023
1023
1023
1023
1023
1023
1023
1023
1023
1023
1023
1023
1023
1023
1023
1023
1023
1023
1023
1023
1023
1023
983
817
615
399
215
117
64
36
23
13
8
5
8
205
769
1023
1023
1023
1023
1023
1023
1023
1023
1023
1023
1023
1023
1023
1023
1023
1023
1023
1023
1023
1023
1023
1023
1023
1023
1023
1023
1023
1023
1023
1023
1023
1023
1023
1023
1023
1023
1023
1023
1023
1023
1023
1023
1023
1023
1023
1023
1023
1023
1023
1023
1023
1023
1023
1023
1023
1023
1023
1023
1023
1023
1023
1023
1023
1023
1023
1023
1023
1023
1023
1023
1023
1023
1023
1023
1023
1023
1023
1023
1023
1023
1023
1023
1023
1023
1023
1023
1023
1023
1023
1023
1023
1023
1023
1023
1023
1023
1023
1023
1023
1023
1023
1023
1023
1023
1023
1023
1023
1023
1023
1023
1023
1023
1023
1023
1023
1023
1023
1023
1023
1023
1023
1023
1023
1023
1023
1023
1023
1023
1023
1023
1023
1023
1023
1023
1023
1023
1023
963
883
805
725
650
579
505
425
337
247
168
98
54
30
17
10
7
4
3
2
2
2
1
1
1
1
1
1
1
1
1
1
1
1
1
1
1
1
1
1
1
1
1
1
1
1
1
1
1
1
1
1
1
1
1
1
1
1
1
1
1
1
1
1
1
1
1
1
1
1
1
1
1
1
1
1
1
1
1
1
1
1
1
1
1
1
1
1
1
1
1
1
1
1
1
1
1
1
1
1
1
1
1
1
1
1
1
1
1
1
1
1
1
1
0
1
1
1
1
1
1
0
1
1
1
1
1
1
1
1
1
1
1
1
1
1
1
1
1
1
1
1
1
1
1
1
1
1
1
1
1
1
1
1
1
0
1
1
1
1
1
1
1
1
1
134
474
872
1023
1023
1023
1023
1023
1023
1023
1023
1023
1023
1023
1023
1023
1023
1023
1023
1023
1023
1023
1023
1023
1023
1023
1023
1023
1023
1023
1022
977
968
946
934
923
901
911
945
961
976
1023
1023
1023
1023
1023
1023
1023
1023
1023
1023
1023
1023
968
736
517
300
161
88
49
28
16
9
6
4
3
2
2
1
1
1
1
1
1
1
1
1
1
1
1
1
1
1
1
1
1
1
1
1
1
1
1
1
1
1
1
1
1
1
1
1
1
1
1
1
1
1
1
1
1
1
1
1
1
1
1
1
1
1
1
1
1
1
1
1
1
1
1
1
1
1
1
1
1
1
1
1
1
1
1
1
1
1
1
1
1
1
1
1
1
1
1
1
1
1
1
1
1
1
1
0
1
1
1
1
1
1
1
1
1
1
1
1
1
1
1
1
1
1
1
1
1
1
1
1
1
1
1
1
1
1
1
1
1
1
0
1
1
1
0
1
1
0
1
1
1
1
1
1
1
1
1
1
1
0
1
1
1
1
1
10
35
57
57
30
27
61
96
129
138
120
119
146
175
189
189
181
133
98
106
141
162
203
220
222
204
184
172
171
192
251
313
362
398
397
386
389
394
414
472
506
527
552
586
610
616
601
579
554
536
572
606
633
646
653
660
666
682
680
633
631
655
665
651
647
643
648
668
684
706
733
745
735
739
738
750
782
803
792
784
781
759
719
707
713
716
711
700
675
633
618
620
625
617
575
540
538
557
568
578
608
630
609
564
525
493
492
515
526
524
530
519
503
500
504
510
523
530
507
454
397
388
403
414
429
461
488
489
484
490
495
497
486
457
433
437
438
422
434
443
468
496
516
524
529
517
508
492
470
472
492
499
525
557
602
659
715
783
874
957
1010
1023
993
940
856
761
702
680
631
579
530
498
469
442
467
511
530
520
492
486
497
518
525
512
503
493
467
451
442
441
477
502
468
412
393
400
431
446
413
394
392
419
461
496
521
531
548
557
527
488
488
503
500
496
537
568
560
559
561
574
595
616
652
701
738
762
768
760
738
702
699
742
786
795
783
770
772
781
785
790
785
773
772
760
741
745
758
762
768
786
819
850
852
814
759
757
777
769
763
769
791
812
826
852
864
850
847
861
876
874
841
841
876
891
893
885
849
830
835
848
854
858
834
789
757
760
764
753
776
787
770
756
746
751
767
777
772
770
758
734
708
659
637
632
646
683
706
715
730
751
770
758
722
697
675
676
697
747
775
752
719
725
709
650
647
701
755
782
795
784
767
759
751
759
797
830
852
869
882
861
816
785
773
794
821
834
842
841
829
820
844
858
869
883
895
898
878
876
887
862
842
833
819
800
814
839
855
854
824
789
747
737
759
784
794
785
820
844
841
819
806
776
775
787
798
808
821
833
829
842
823
775
754
760
774
780
775
758
734
717
703
682
663
636
636
660
688
707
740
777
785
770
757
778
815
815
805
809
809
836
865
858
832
822
823
819
799
776
764
768
781
772
747
745
756
759
765
778
772
738
714
716
735
727
730
743
763
778
773
746
721
723
713
714
734
767
786
783
746
723
732
729
718
715
703
707
739
751
751
740
716
671
648
638
628
648
704
731
720
713
701
673
653
669
703
735
750
722
697
691
681
651
680
727
752
760
768
791
817
772
731
680
659
691
746
782
792
815
831
809
750
709
698
722
754
789
831
852
867
859
822
799
798
803
835
838
816
802
816
855
871
847
798
734
737
771
782
796
820
854
884
888
847
781
771
800
819
810
786
783
800
809
802
801
823
837
843
855
872
877
878
895
927
960
1003
1003
997
1023
1023
1023
1023
1023
1023
1023
1023
1023
1023
946
866
809
754
713
667
649
643
615
611
633
661
695
692
685
708
746
754
739
731
720
701
713
737
766
807
821
789
721
695
699
706
685
681
705
737
755
741
703
670
663
679
682
661
673
704
747
784
746
681
674
688
693
697
694
699
709
724
731
735
747
763
749
716
691
678
679
678
673
695
729
717
658
615
614
658
697
697
659
622
585
548
551
577
601
624
635
636
607
584
566
548
537
548
582
619
641
624
603
582
571
562
551
567
576
555
519
519
562
607
632
624
573
528
512
538
560
573
574
557
515
482
475
462
447
438
451
475
462
434
399
392
371
353
346
364
384
392
406
461
532
571
569
553
543
538
536
544
573
584
573
549
515
488
486
492
503
527
490
454
443
460
510
562
565
561
577
568
561
554
528
516
531
544
559
580
621
664
684
646
580
514
477
496
504
511
525
547
567
602
631
609
568
540
544
540
548
548
526
502
499
481
466
479
496
464
459
480
461
442
444
442
452
479
484
448
425
432
441
432
427
417
399
385
381
390
386
387
388
400
411
416
422
427
423
435
431
398
407
441
459
446
421
409
402
397
377
340
344
384
416
432
423
435
465
462
445
403
395
408
402
413
412
400
420
422
405
388
379
393
420
432
436
433
434
453
470
476
456
426
412
390
400
429
445
452
456
435
425
415
417
423
414
427
434
421
397
376
370
385
385
377
383
376
365
359
381
418
441
422
390
361
342
359
376
377
366
386
421
421
406
392
390
401
410
383
351
348
360
408
447
442
421
400
380
385
398
396
400
391
396
441
479
462
425
412
416
439
466
474
456
411
409
416
404
435
474
481
452
429
416
425
425
431
426
428
437
452
464
471
459
451
455
454
443
423
426
455
472
481
490
482
467
432
423
424
421
411
378
376
410
453
486
516
566
637
698
781
853
870
849
812
785
765
710
640
556
479
398
310
245
227
254
279
281
305
332
344
384
411
420
411
408
403
404
423
416
413
415
439
481
506
503
492
474
447
443
433
417
428
437
433
424
415
428
442
447
439
436
454
485
512
510
466
441
446
447
430
409
440
490
507
464
450
448
479
516
529
515
488
482
494
503
502
489
487
494
514
532
537
544
556
560
572
564
556
571
588
609
634
632
614
604
606
612
620
646
670
659
639
649
650
621
624
632
631
641
625
595
579
595
622
624
613
575
517
527
563
557
560
575
556
508
505
513
527
524
494
444
394
388
415
434
432
402
374
357
354
346
355
373
385
392
381
358
348
350
369
363
343
357
362
320
293
291
304
321
334
325
321
316
316
305
306
344
351
349
374
399
399
408
416
418
411
425
423
393
373
380
416
442
445
436
406
393
425
442
450
444
415
427
455
447
446
441
448
453
462
434
414
429
433
441
433
412
396
388
402
442
482
467
424
408
388
375
417
470
478
439
422
444
480
491
463
441
421
423
435
456
476
483
428
386
405
431
424
435
466
487
496
499
482
434
420
461
492
502
490
461
458
474
487
480
488
502
495
491
495
496
490
473
447
428
455
478
483
482
490
496
512
532
517
494
468
445
438
429
443
471
496
499
480
488
475
472
487
493
493
499
506
515
529
531
504
469
449
472
493
472
423
399
443
507
520
506
496
504
501
516
543
573
574
546
515
486
452
428
461
491
490
472
459
455
457
477
479
466
466
476
466
447
443
484
534
556
539
526
509
484
469
478
483
470
464
451
422
416
464
502
532
543
534
542
556
545
529
525
539
545
522
493
490
504
499
498
520
551
578
571
550
522
497
507
519
511
510
555
596
595
561
533
520
498
476
480
484
512
552
560
538
525
475
457
509
526
515
510
534
570
588
551
478
442
435
448
477
488
497
503
516
516
519
545
601
666
751
840
931
996
990
924
818
711
638
587
530
447
361
305
299
295
288
323
336
353
391
428
438
455
473
489
486
466
462
471
471
476
475
470
475
482
489
485
486
468
444
440
464
508
521
514
516
524
501
479
501
540
576
559
523
497
489
497
504
482
473
476
498
520
529
502
508
538
541
517
490
501
528
552
555
540
503
483
491
514
530
528
519
557
590
584
536
496
498
521
526
530
524
544
574
569
539
524
557
591
620
615
612
624
618
581
562
581
592
609
644
641
615
546
512
538
552
575
594
595
592
593
572
552
533
529
540
516
501
507
509
487
474
465
450
440
437
426
391
377
409
447
456
454
431
402
406
425
430
418
418
439
445
418
418
471
498
477
448
438
432
433
435
455
492
488
475
473
464
468
499
522
532
535
506
485
495
499
468
443
448
478
486
453
411
432
489
530
530
522
505
500
487
476
464
471
488
515
546
555
529
518
520
521
513
485
455
465
489
524
537
502
483
517
527
507
487
486
493
500
515
517
488
479
506
532
520
505
503
491
480
457
441
463
510
552
548
506
476
468
480
487
506
522
522
508
502
494
479
474
486
504
501
510
526
541
545
532
507
473
464
493
527
530
529
514
509
540
553
516
468
459
477
503
495
489
496
518
525
533
525
505
526
515
489
494
522
538
559
582
575
527
495
519
561
578
553
535
528
516
524
532
528
518
518
527
531
532
511
509
521
551
574
562
534
533
538
522
518
532
541
536
546
572
590
572
554
560
560
543
551
579
576
543
512
513
530
552
561
541
513
507
532
560
556
541
534
546
576
608
608
562
550
562
580
589
602
577
578
587
584
572
574
572
600
633
639
630
645
668
672
680
692
682
674
657
655
655
644
630
604
596
624
635
641
658
638
618
617
593
564
571
613
645
670
652
613
630
665
667
632
565
523
524
544
583
610
609
610
623
595
546
566
602
626
683
743
780
837
927
991
1023
1016
971
886
788
683
571
509
467
408
383
364
368
384
413
445
468
480
493
496
513
527
533
527
518
527
527
526
529
538
546
547
514
482
450
476
519
517
526
556
547
525
517
506
503
476
484
508
545
568
569
537
513
500
494
524
535
481
461
501
532
531
535
558
565
526
488
466
476
482
505
548
573
568
548
548
555
538
495
503
535
556
558
554
551
543
539
575
591
590
557
526
490
452
444
491
535
553
558
579
582
582
585
588
587
578
554
567
599
601
580
566
566
565
559
534
529
535
520
495
484
478
479
519
559
548
503
473
476
458
446
437
430
413
384
354
370
395
404
398
392
427
441
408
384
377
354
345
369
379
388
401
424
444
418
396
383
378
391
397
386
410
407
398
407
399
394
410
436
444
440
428
428
452
461
434
428
443
447
444
440
463
472
457
450
454
450
468
494
497
455
402
415
464
485
483
463
470
494
477
462
467
481
498
504
504
486
469
458
456
466
483
498
493
471
444
470
480
470
499
528
500
476
480
503
516
484
458
468
476
476
493
524
543
542
508
466
449
428
428
443
451
466
490
488
475
463
481
501
526
545
526
509
501
492
493
490
494
482
462
460
442
421
418
446
472
509
518
515
529
524
496
446
425
448
474
514
558
567
539
505
483
460
436
407
423
480
509
528
524
510
518
523
521
501
484
490
511
517
522
513
508
493
491
500
515
510
523
520
474
462
492
500
467
462
462
443
426
440
453
473
478
469
480
485
485
488
488
513
512
493
478
480
481
480
478
476
497
530
554
548
543
500
479
497
528
538
552
564
560
562
578
570
543
515
513
532
555
536
509
534
558
571
580
576
534
495
508
529
537
536
552
580
588
564
545
543
572
613
638
600
532
513
525
518
495
497
503
524
555
562
555
560
559
557
543
505
505
535
555
567
566
569
583
577
600
624
675
739
816
904
982
997
967
927
841
762
692
626
556
475
409
384
367
363
352
363
394
433
466
490
544
566
545
532
547
577
588
584
563
527
499
502
528
544
504
466
485
513
519
509
513
549
573
568
560
544
521
521
519
524
535
555
573
590
605
593
567
564
574
573
534
503
496
484
499
525
531
538
530
532
559
576
582
591
605
607
596
570
573
591
604
622
621
617
589
572
558
555
557
570
576
594
612
627
640
640
640
636
596
580
566
535
567
629
684
709
709
706
686
657
642
612
581
573
578
591
605
605
611
616
602
580
572
564
557
537
526
518
505
496
474
467
494
503
477
448
425
400
402
430
448
431
410
398
421
427
402
387
388
385
398
400
387
361
353
385
417
440
456
442
420
401
395
396
393
403
435
455
452
441
439
424
423
435
468
471
466
464
451
434
432
441
431
415
397
411
452
490
499
485
485
504
514
521
516
505
491
475
467
466
467
472
472
457
447
430
447
458
464
484
501
482
472
507
554
569
562
546
558
571
546
499
464
439
428
435
460
476
498
507
494
480
462
461
494
505
504
512
513
522
533
552
558
528
499
507
526
489
474
502
525
522
510
506
534
536
502
504
520
516
491
493
509
499
506
525
541
514
476
471
486
489
481
509
521
505
516
539
568
556
509
488
478
493
503
503
503
513
506
520
521
524
517
512
518
529
538
524
538
524
494
483
512
510
495
512
539
550
540
528
516
497
476
472
464
458
487
534
561
544
527
505
493
521
550
533
502
526
532
530
524
515
501
492
496
489
480
486
501
529
531
514
526
527
523
525
533
539
548
556
533
514
526
537
527
534
526
551
571
572
549
535
520
520
513
533
573
600
621
614
542
465
448
470
480
487
509
524
531
553
554
558
568
562
525
500
492
498
507
525
545
567
579
565
543
529
510
501
484
476
487
493
487
502
528
522
535
557
547
606
720
827
923
994
1023
1010
921
835
740
649
564
481
407
337
314
328
337
343
353
377
383
399
439
474
479
492
491
482
478
488
496
500
504
475
428
449
500
525
531
529
525
540
554
546
522
490
470
487
510
543
547
536
543
543
535
542
527
527
544
576
594
593
577
578
593
584
577
570
573
561
547
561
566
541
527
536
566
570
576
571
590
609
604
623
634
627
624
651
673
690
673
638
632
632
631
645
665
653
632
631
638
659
669
668
657
667
662
640
680
720
718
725
716
688
635
629
670
702
709
712
686
651
661
650
641
625
627
645
633
612
594
584
570
575
592
580
562
548
541
517
527
549
561
552
544
542
534
537
526
480
477
485
505
524
535
554
567
546
538
545
538
533
528
529
556
577
588
566
530
539
553
540
501
528
579
609
632
642
654
636
591
563
556
551
576
591
598
604
599
622
652
638
596
574
579
577
576
589
603
602
593
574
571
575
592
612
616
605
618
630
612
596
601
591
586
592
592
617
636
625
598
559
564
556
547
539
541
574
600
614
604
560
531
552
567
587
596
578
568
547
540
570
600
610
597
570
554
549
568
562
551
547
554
577
620
628
604
547
483
469
490
540
590
610
611
593
562
549
561
560
532
541
568
568
571
573
555
531
547
567
562
553
543
526
499
495
508
533
582
589
589
579
542
519
490
501
543
565
556
546
555
541
534
543
558
596
586
523
501
505
501
524
529
537
542
559
555
532
513
508
529
544
513
502
515
536
546
554
559
547
540
541
547
538
525
503
500
507
531
555
566
577
577
548
530
539
560
565
537
530
543
550
521
503
515
547
554
524
507
504
539
559
546
538
519
503
520
512
550
608
631
643
633
627
595
529
493
488
522
577
591
559
525
508
492
461
443
457
469
464
486
481
489
521
551
542
526
527
522
515
525
562
592
631
669
706
772
844
893
929
942
881
784
686
587
518
473
406
332
307
306
320
319
317
368
416
428
426
424
439
452
439
442
441
444
459
467
464
462
476
487
489
482
484
483
492
474
423
425
455
478
496
524
527
499
496
502
506
484
453
439
435
455
472
471
452
440
441
457
486
477
473
471
473
483
497
503
495
463
457
453
444
458
482
489
489
501
509
512
519
502
509
525
516
507
474
471
496
507
495
474
460
457
459
467
460
476
516
548
561
529
525
527
530
528
523
525
542
541
542
544
537
538
527
469
457
487
496
514
489
484
527
512
476
438
435
455
456
448
424
397
408
428
419
378
346
355
365
351
321
297
301
315
314
301
288
291
283
288
306
345
368
381
380
367
358
339
332
326
330
311
305
322
313
293
290
311
333
336
342
341
346
357
373
369
331
320
357
378
390
410
412
401
399
384
346
322
329
342
339
330
319
306
325
357
379
401
416
388
384
407
421
438
453
457
460
476
478
446
406
391
386
390
391
387
389
395
379
387
406
402
365
369
397
399
395
386
397
426
455
478
490
470
446
426
435
433
419
402
399
398
395
388
377
382
409
416
408
406
394
409
429
432
420
421
393
389
398
434
441
436
424
408
421
438
431
408
406
414
454
504
495
430
352
329
358
384
400
421
421
430
441
409
390
408
404
408
435
462
451
440
446
456
452
439
401
385
388
403
436
443
435
439
442
452
453
449
446
433
419
424
421
416
398
391
394
429
457
457
439
435
441
420
415
421
443
450
449
466
476
466
424
402
418
436
469
473
444
417
421
424
436
426
413
411
407
409
432
495
532
552
552
522
495
479
472
463
469
488
518
531
520
517
550
553
545
519
473
444
468
467
437
398
374
376
421
463
490
482
477
476
481
488
464
441
463
486
531
593
648
711
795
863
896
912
898
815
687
544
440
383
348
322
267
251
256
287
329
344
346
368
393
401
394
391
401
411
409
402
403
392
430
479
485
477
458
446
425
412
427
468
454
436
434
422
430
430
465
491
470
424
430
461
466
460
475
486
478
465
471
463
469
482
485
501
507
503
492
474
477
476
493
511
512
504
503
488
471
476
491
497
520
529
518
503
506
498
490
515
527
542
560
561
549
551
578
580
565
569
567
572
563
580
582
563
571
549
540
536
562
586
584
531
500
505
514
502
525
557
547
534
545
548
548
543
562
587
546
464
425
418
418
391
367
400
418
414
390
363
390
409
385
363
366
372
389
385
365
371
392
393
380
326
321
364
393
401
391
373
369
372
370
372
362
356
356
361
394
420
429
432
418
389
389
416
424
430
432
413
434
450
439
427
444
455
458
441
420
424
439
455
463
453
452
440
436
442
464
456
430
424
408
411
461
495
478
465
467
477
503
521
507
495
495
505
500
481
456
484
511
486
476
456
423
417
469
528
550
526
521
519
501
487
491
488
490
509
521
512
497
505
523
530
526
522
515
517
512
506
520
532
549
548
520
512
521
538
522
508
508
518
511
498
517
530
545
545
542
540
528
497
492
503
540
563
578
590
587
576
543
518
525
526
526
525
512
524
543
552
550
537
540
547
571
587
566
559
550
516
495
519
514
509
554
597
604
576
556
570
573
561
548
560
580
582
578
581
581
587
583
589
587
563
568
584
584
583
579
579
581
567
569
608
621
589
567
565
571
585
606
624
627
619
615
601
594
603
586
577
607
619
600
579
592
597
621
652
655
618
578
565
569
554
549
556
574
589
572
557
587
604
595
595
607
612
610
581
553
515
505
534
568
592
601
567
543
527
501
479
502
538
560
551
532
545
557
584
641
728
782
832
884
941
982
974
915
838
732
618
538
443
352
304
296
312
345
378
402
416
431
460
479
477
470
476
465
449
464
480
472
450
452
467
472
490
515
519
513
505
485
488
499
526
542
535
536
525
485
459
486
518
550
536
520
514
516
519
534
526
513
502
470
475
503
516
500
513
532
535
551
573
570
538
516
492
507
532
538
529
525
534
531
550
563
574
588
602
597
565
552
538
531
531
535
562
584
585
570
544
542
562
595
626
622
600
602
607
626
646
627
611
586
571
565
567
567
567
568
565
562
588
583
525
507
517
520
518
519
541
536
503
464
436
423
470
491
487
475
462
426
380
352
348
371
406
421
404
379
393
400
395
410
451
467
445
436
397
361
369
396
409
414
405
431
455
440
401
379
387
413
442
478
479
494
508
506
485
443
426
422
435
450
476
485
467
441
449
472
477
475
494
490
495
509
498
480
470
459
449
465
503
539
560
545
537
532
511
514
496
491
518
524
529
520
505
497
502
514
513
514
505
483
483
489
495
513
528
536
542
565
559
560
563
509
450
463
534
582
563
532
514
520
548
538
520
548
582
582
559
550
548
543
520
498
507
536
547
552
546
526
539
542
530
507
513
534
557
575
589
574
559
569
567
535
528
526
509
518
525
522
524
535
559
577
547
526
530
521
513
527
559
576
561
541
550
554
543
562
580
565
550
555
574
588
552
514
516
552
560
552
527
513
519
543
575
613
616
593
540
486
482
523
562
590
583
574
566
562
521
507
552
575
575
571
579
563
540
534
557
605
619
591
552
531
540
547
565
543
516
505
515
530
510
503
534
569
573
582
598
586
562
532
523
520
555
568
562
545
521
502
507
516
515
509
500
477
493
530
545
556
532
535
536
537
564
608
663
709
741
764
800
851
908
931
896
810
741
662
557
479
430
377
336
326
335
366
394
404
423
446
482
520
522
484
460
466
480
515
539
556
563
554
558
551
530
524
543
546
535
548
564
556
517
487
462
469
516
550
574
580
584
572
550
542
546
543
547
552
550
571
583
574
553
551
571
592
592
607
613
589
570
584
616
602
614
628
613
602
586
569
569
557
543
551
581
621
637
664
685
681
624
593
595
611
623
649
652
636
634
662
691
688
671
659
624
608
613
636
636
611
600
602
617
626
632
635
660
660
643
627
603
545
517
472
488
522
545
539
500
507
516
507
487
490
504
515
495
453
453
475
482
457
441
446
443
451
459
463
434
415
450
474
473
454
420
439
477
503
527
539
513
487
465
458
454
438
432
427
430
463
470
448
457
451
450
505
571
589
580
549
535
525
521
522
522
522
519
505
494
476
469
478
485
499
522
536
525
508
500
494
491
500
528
531
523
502
473
480
479
499
523
532
513
463
448
470
483
513
532
527
533
532
535
528
525
550
556
554
554
535
518
509
513
523
525
512
504
468
469
502
518
506
503
551
558
527
503
496
494
524
533
528
516
499
522
527
500
484
483
493
509
503
478
475
486
506
497
490
485
479
480
473
490
503
482
452
441
448
449
429
413
454
513
544
568
538
496
479
462
469
500
525
562
582
580
588
591
605
596
601
639
655
636
653
683
671
650
682
722
733
739
725
738
781
809
809
822
829
820
839
857
840
821
825
824
820
812
817
817
811
809
834
835
791
753
715
719
753
750
716
690
691
703
714
703
681
669
665
676
665
677
660
625
624
615
617
613
627
637
623
624
600
547
508
489
513
552
579
581
551
501
495
493
523
563
601
638
636
607
610
621
644
688
759
844
907
949
982
1020
1023
1002
931
862
760
666
579
501
456
456
499
542
519
490
478
477
474
484
498
505
493
516
543
562
568
552
537
523
547
540
546
577
558
528
509
535
518
479
397
379
408
437
448
446
442
429
401
382
390
416
433
449
434
413
374
323
281
272
271
292
291
268
270
259
251
246
214
172
159
166
195
204
169
148
188
208
207
216
240
266
251
217
210
214
172
129
125
126
116
103
73
59
61
79
60
32
18
36
53
76
75
61
60
65
69
77
78
75
84
75
46
77
105
109
86
61
36
19
11
8
18
35
39
41
55
62
35
18
11
21
40
45
38
53
57
51
48
44
60
72
75
93
99
102
93
79
103
111
84
81
97
119
140
161
166
157
162
184
202
195
204
208
212
252
273
250
235
243
269
271
238
248
291
306
320
317
300
296
307
344
367
352
316
300
284
281
314
327
328
317
282
303
326
330
332
344
374
405
398
402
413
412
402
409
425
445
449
445
463
471
482
480
488
478
461
456
479
509
528
513
499
507
502
500
510
497
481
492
484
506
553
557
563
561
554
560
570
555
550
553
544
542
545
551
542
552
565
575
584
605
621
610
593
587
591
595
625
653
659
644
617
587
586
596
596
595
601
615
618
638
662
661
625
582
568
603
636
632
615
615
637
658
656
625
590
601
643
671
652
641
640
639
636
632
633
619
592
600
624
660
671
665
615
599
624
619
628
662
669
666
644
633
642
628
625
633
637
645
628
622
625
617
620
618
599
581
582
590
609
638
656
619
605
619
641
660
666
646
647
635
626
619
630
618
607
606
598
590
604
615
633
642
620
591
572
590
618
636
607
594
589
606
634
643
629
598
575
575
591
601
597
581
588
597
572
557
562
590
622
633
618
619
674
736
821
891
950
1007
1022
1017
979
903
801
698
620
550
459
398
375
389
415
411
439
463
481
494
497
482
472
504
535
573
579
558
552
555
547
543
539
545
551
554
544
528
525
523
521
525
523
500
527
568
586
569
548
553
555
545
566
580
556
524
538
555
553
556
551
563
559
528
535
564
592
595
577
543
549
555
564
591
595
603
596
572
563
556
574
595
594
620
638
635
623
623
604
588
596
607
612
583
590
619
645
658
662
642
624
642
667
670
668
663
648
649
669
684
682
665
650
625
606
629
662
662
627
615
620
614
620
629
612
585
551
499
515
530
522
526
534
535
517
493
481
468
447
439
438
459
483
466
447
424
417
423
430
429
421
416
413
425
419
398
404
408
414
436
469
466
466
458
469
498
501
476
453
448
452
463
463
466
459
458
485
496
509
506
480
476
467
468
480
499
525
528
527
515
519
521
511
513
515
490
473
488
544
568
546
506
507
498
476
469
490
519
536
543
508
489
491
505
513
527
532
542
523
526
539
564
573
540
492
451
481
504
498
511
524
528
530
534
519
541
542
549
557
547
528
497
506
553
574
569
565
544
557
560
526
496
505
515
505
525
543
537
518
522
531
528
553
569
571
580
579
575
556
530
517
508
509
523
550
554
553
568
572
563
544
533
514
489
482
500
505
499
509
513
524
539
576
586
590
573
574
574
542
520
527
544
553
561
595
618
618
612
598
576
540
502
497
514
513
524
548
561
548
519
499
514
522
543
561
552
559
581
599
611
604
564
541
557
567
559
557
569
585
578
574
560
536
551
595
607
597
570
526
509
526
532
533
567
576
566
553
540
557
550
550
557
588
603
587
577
577
568
559
538
540
527
525
530
521
514
510
554
606
620
624
655
712
771
817
858
889
927
968
958
871
755
650
573
496
421
364
332
304
304
353
432
478
509
523
525
521
512
520
515
527
550
564
566
563
561
568
566
564
544
533
541
524
529
557
583
599
610
586
571
570
573
599
621
608
591
615
629
642
635
616
595
589
590
585
553
547
585
607
615
621
624
640
638
640
656
682
662
639
632
627
620
622
619
623
644
657
639
670
694
702
715
707
697
685
662
643
641
651
665
683
705
683
650
643
635
635
653
696
714
697
670
695
712
726
741
731
695
671
664
670
677
688
678
658
608
562
554
572
579
579
561
531
507
495
504
518
584
568
532
499
500
517
515
489
460
440
450
448
432
421
456
478
467
447
429
425
434
434
438
483
543
559
541
487
478
506
528
523
493
480
474
492
534
561
568
562
557
545
534
533
544
529
518
509
498
519
547
575
586
589
589
540
504
515
531
579
613
605
603
598
575
551
530
513
506
502
512
519
536
548
562
561
552
522
514
512
512
529
539
538
525
503
503
537
552
562
535
518
508
480
500
551
565
559
565
567
550
511
494
519
531
522
496
506
533
509
518
541
545
534
519
520
516
536
555
553
519
513
504
510
520
529
564
568
536
483
454
474
515
540
551
575
605
611
537
511
501
493
494
510
531
535
529
525
518
544
554
578
589
576
567
546
539
546
546
537
533
546
537
511
498
522
553
559
563
557
535
498
510
513
528
542
552
565
573
581
573
548
531
534
547
550
542
531
527
508
522
554
569
569
548
556
554
524
502
524
536
506
497
531
573
579
575
582
573
540
529
499
473
513
544
552
557
543
529
528
519
504
513
509
505
495
475
480
523
536
523
514
501
488
478
479
484
485
460
444
447
465
459
469
500
517
527
554
564
615
665
706
783
846
891
921
919
853
741
617
526
462
395
363
354
336
316
324
347
352
328
346
406
435
430
449
469
468
447
418
421
432
446
447
431
412
414
424
430
428
427
432
435
428
443
453
484
496
500
484
470
460
465
427
389
387
404
433
461
448
428
452
486
475
486
499
490
485
455
431
451
458
482
490
473
455
456
457
443
459
480
476
476
486
507
510
476
463
487
495
487
486
487
500
488
480
477
501
498
502
511
523
525
527
512
485
487
499
518
527
522
520
522
539
533
514
500
504
494
477
493
471
444
457
492
488
454
426
410
407
398
362
358
359
321
327
351
344
325
334
333
347
352
321
287
269
257
263
272
292
296
295
264
256
284
301
283
278
275
271
286
286
288
293
318
339
348
354
344
323
305
288
287
298
323
334
320
318
323
321
307
293
315
360
394
388
367
341
337
368
377
350
318
318
335
346
367
384
414
437
437
424
392
379
373
341
343
379
401
393
406
413
423
410
397
404
397
390
398
399
388
363
379
390
376
378
389
388
385
395
423
439
444
421
378
386
388
402
434
414
405
419
446
465
456
425
409
413
415
395
388
403
412
427
447
460
455
449
432
419
415
404
393
412
432
441
440
425
424
429
420
426
454
452
419
388
400
459
514
521
478
423
400
414
416
404
417
447
464
444
443
448
437
440
438
414
428
441
448
462
466
479
464
448
463
482
479
479
467
446
434
433
442
474
485
481
486
496
490
494
494
487
471
460
442
460
472
477
487
476
451
448
465
494
502
517
526
504
470
458
470
464
450
457
464
448
437
445
459
488
492
494
486
454
440
462
474
496
503
487
461
467
480
472
461
438
414
408
437
468
487
474
462
482
494
504
493
455
421
407
405
413
450
478
484
442
413
406
420
440
458
478
466
459
481
529
575
639
729
817
878
927
938
886
780
661
571
478
381
298
244
222
237
283
325
332
332
365
388
397
402
391
404
444
447
412
411
422
405
449
480
484
479
468
435
437
493
509
464
450
466
470
469
476
461
452
446
446
479
500
487
493
505
498
469
434
438
465
491
499
501
513
520
526
529
524
544
567
553
542
522
525
544
557
566
570
578
559
518
496
510
493
490
519
542
558
587
596
569
528
510
504
531
569
585
587
609
635
656
643
603
583
561
526
507
522
548
580
606
615
618
606
584
562
547
530
522
529
529
515
528
530
529
510
481
466
466
479
494
449
415
405
394
392
383
363
348
355
366
378
358
348
365
359
353
354
372
378
365
369
368
379
378
363
343
322
342
385
422
450
446
405
358
359
361
386
406
394
402
416
412
424
446
433
405
396
410
437
448
429
449
461
488
495
498
511
500
458
442
445
453
467
494
523
530
484
442
436
451
508
542
527
505
479
460
463
468
484
471
461
477
492
490
499
504
519
514
483
482
513
526
514
494
493
527
534
521
504
481
492
508
517
512
506
510
512
513
521
511
491
500
493
482
479
482
479
470
469
504
546
554
520
518
522
497
478
509
522
510
495
517
542
534
515
494
506
526
517
527
523
518
516
534
532
542
544
522
488
460
476
513
543
568
574
551
553
552
530
506
500
528
551
540
526
507
503
513
534
550
553
540
534
520
525
538
512
525
553
567
578
574
562
575
557
520
523
526
518
530
559
562
564
567
558
547
534
513
517
541
560
576
581
574
563
571
588
589
568
537
526
525
534
528
534
568
596
595
604
596
577
562
549
534
532
575
599
578
548
554
563
549
531
549
586
578
557
539
518
514
513
546
540
534
567
588
566
534
512
499
521
534
524
523
527
547
545
544
556
560
568
602
659
740
832
924
977
979
961
919
841
744
655
568
467
389
355
337
304
314
348
367
372
403
442
460
470
476
493
505
513
526
527
567
572
546
536
530
550
561
557
532
518
513
531
538
552
546
537
514
492
526
565
607
624
587
544
521
504
510
525
540
568
581
561
543
548
566
583
578
556
538
532
510
518
563
604
623
624
617
579
574
592
580
574
585
578
579
604
641
654
642
629
626
625
598
588
577
579
584
592
601
608
615
620
624
625
639
654
647
634
609
588
593
638
676
683
688
682
654
619
587
580
588
573
556
570
582
600
589
580
564
558
537
492
463
466
481
481
466
448
433
431
420
412
422
443
444
406
363
381
423
432
430
436
459
470
454
427
428
450
416
407
435
451
456
449
428
413
398
416
452
465
461
481
489
490
488
471
447
445
467
487
491
494
502
504
537
547
546
547
530
486
495
529
553
553
513
523
528
548
571
575
550
530
517
499
507
545
557
540
511
497
482
473
491
519
522
525
536
553
557
575
600
595
571
554
534
531
546
538
531
546
570
572
550
529
516
541
530
542
579
575
541
539
531
531
519
509
502
530
550
560
543
535
532
528
542
549
545
547
541
524
540
582
567
543
515
503
521
547
568
554
545
550
545
539
548
564
543
518
536
541
529
545
550
540
544
557
557
545
517
487
470
494
521
541
534
499
527
585
594
591
572
544
529
534
538
523
498
495
539
578
577
555
544
530
526
519
510
510
535
569
566
561
554
526
504
511
545
567
558
542
546
572
593
580
560
558
559
569
579
593
605
578
548
541
519
526
573
592
596
593
572
543
526
505
515
560
584
586
577
567
571
577
553
501
487
510
550
568
532
506
499
555
580
572
553
543
546
532
515
506
518
558
579
562
536
540
549
566
622
704
813
909
944
929
904
825
734
684
627
547
449
373
333
317
318
317
353
399
433
449
463
478
490
489
496
504
510
510
500
500
503
479
493
520
527
525
537
544
526
493
512
568
569
536
528
516
512
503
484
502
524
536
567
580
590
570
534
535
557
584
591
572
532
516
539
514
492
502
511
509
524
569
592
583
557
515
517
551
580
578
575
590
594
602
622
611
575
545
545
577
594
591
598
605
605
603
627
647
637
622
620
614
583
561
569
589
597
590
603
618
638
652
647
623
605
568
572
593
608
602
582
550
558
564
559
563
560
533
521
504
468
451
476
512
515
472
435
411
400
393
397
399
395
410
420
408
389
377
367
349
355
365
373
393
427
430
424
417
412
422
438
448
417
391
393
426
427
413
404
384
429
471
480
467
455
434
425
434
438
450
488
523
552
566
544
497
487
481
471
473
483
469
448
454
479
511
492
478
509
520
507
516
513
502
481
475
485
497
521
526
529
507
486
481
499
463
424
438
474
508
542
559
551
543
541
525
523
493
465
462
483
507
518
500
464
453
455
467
468
459
473
472
461
473
515
506
487
524
542
543
526
492
481
496
525
525
521
508
497
497
483
464
455
456
463
462
445
439
472
505
523
525
521
524
527
492
463
453
453
448
475
508
528
534
529
504
491
491
492
489
491
471
457
461
491
493
480
475
480
470
472
493
533
554
531
486
474
489
504
500
478
463
477
487
480
487
489
467
464
474
493
501
477
443
415
389
403
463
485
470
473
514
538
546
550
520
474
469
466
478
493
480
461
444
456
475
494
481
487
527
559
544
504
479
469
472
465
472
483
458
423
472
540
584
577
561
534
518
507
493
475
447
447
453
493
498
490
501
514
490
471
487
494
487
473
462
446
467
479
477
498
532
545
526
507
518
528
565
618
676
754
833
881
910
905
873
826
736
602
505
450
391
341
307
290
297
329
364
379
403
426
446
459
457
453
457
447
452
462
482
494
493
496
503
519
537
525
504
530
552
533
490
471
489
502
501
478
451
444
476
521
548
549
535
518
505
486
491
504
521
516
500
483
479
508
532
541
546
529
494
483
501
536
547
544
522
511
514
526
518
528
566
583
564
546
556
548
534
529
526
536
552
574
592
593
580
568
569
578
577
576
588
581
571
571
573
577
606
617
602
602
602
586
571
579
586
580
570
550
536
572
590
552
532
521
501
497
497
474
452
454
442
443
442
448
445
430
413
413
397
375
378
381
390
398
399
406
402
393
409
397
359
334
338
363
394
389
357
338
338
370
398
412
400
383
375
409
409
396
431
449
409
361
392
445
473
471
460
470
450
423
437
462
461
447
453
469
478
480
483
469
441
417
433
449
440
439
454
430
446
494
516
522
535
522
479
472
477
477
472
463
496
503
474
463
489
498
490
489
498
510
513
497
500
499
481
487
501
494
487
498
489
482
490
489
489
517
524
522
542
550
526
492
504
512
499
488
496
510
518
532
533
525
527
528
544
570
559
525
501
509
518
514
495
503
523
536
539
534
523
503
527
537
532
515
516
516
508
502
482
485
512
529
543
573
556
493
470
487
498
519
515
519
526
539
554
551
550
555
553
512
481
471
500
526
534
526
530
558
575
548
498
451
457
458
470
507
545
561
549
525
522
527
529
523
508
501
510
515
508
497
496
518
535
527
486
486
512
527
544
556
551
541
538
551
548
543
544
551
522
483
491
534
540
530
523
513
491
479
486
510
541
529
527
552
565
571
554
534
513
517
530
531
528
534
513
493
513
512
531
545
530
492
491
507
521
519
493
467
466
491
494
500
516
512
491
488
520
554
603
664
721
785
845
889
910
905
875
808
723
643
564
514
439
345
290
299
320
359
394
407
442
470
489
499
502
470
458
476
479
490
485
479
486
495
504
519
527
522
503
495
507
506
518
513
501
502
506
508
510
518
557
565
540
493
485
490
516
558
568
552
526
544
572
591
564
536
527
522
523
543
558
575
569
539
525
540
556
551
549
555
547
535
543
568
567
571
600
630
609
572
564
578
602
613
603
597
572
558
577
585
581
578
581
591
598
604
585
575
596
607
608
655
654
624
602
626
630
618
589
593
613
592
559
556
553
547
565
558
545
540
518
501
505
490
471
455
444
437
435
420
407
417
446
466
462
415
411
429
423
423
417
402
400
396
421
438
417
410
417
413
411
434
441
423
406
421
439
459
483
495
490
486
459
456
472
472
479
466
460
478
501
500
494
494
516
545
538
496
489
496
492
469
477
504
524
506
503
510
513
508
492
490
511
505
513
548
562
556
546
520
483
491
519
542
540
514
497
496
480
479
488
502
503
481
487
502
520
534
525
510
522
530
538
514
488
491
497
505
522
521
513
510
525
525
540
536
538
535
515
492
488
480
482
503
513
516
523
504
487
492
501
484
442
437
463
491
508
512
527
554
558
544
520
488
460
478
529
552
548
518
529
539
505
482
498
517
518
545
544
517
503
500
474
494
510
496
499
515
510
492
517
528
524
518
507
489
515
538
542
532
531
510
521
491
471
484
496
503
508
507
517
531
535
528
501
488
490
513
544
549
541
527
523
524
527
512
504
504
521
519
489
459
464
483
502
511
529
555
542
557
562
535
523
532
546
539
536
505
503
530
542
545
555
550
536
527
519
513
502
494
510
494
465
467
474
511
540
568
565
543
527
525
518
519
543
558
533
519
514
509
510
502
515
536
550
574
621
659
705
777
852
900
918
888
811
733
666
606
543
464
396
354
328
332
348
369
400
422
446
448
438
451
481
475
460
463
476
508
524
535
538
519
494
480
463
489
513
516
506
502
499
505
525
526
496
505
527
503
504
517
522
541
565
573
567
558
577
584
534
529
534
547
532
509
514
547
560
544
534
544
552
548
548
549
568
589
601
604
588
565
559
564
568
569
582
593
577
570
577
557
572
608
648
636
602
595
591
553
542
575
578
585
608
603
594
582
584
582
590
598
595
572
564
578
567
548
540
538
556
563
557
536
501
477
470
466
469
468
449
421
416
436
450
440
432
419
416
409
393
387
402
411
414
419
420
414
387
355
329
348
356
351
359
368
406
419
383
390
413
394
375
387
416
414
421
440
438
435
451
459
454
445
429
427
436
445
444
454
447
428
424
432
447
459
486
508
505
494
504
518
527
534
517
542
525
482
455
468
482
485
484
482
476
487
495
494
506
530
543
514
495
477
449
452
479
489
493
481
461
464
469
492
515
508
499
488
493
513
513
485
476
501
517
517
505
482
468
458
449
458
475
476
493
502
506
500
497
500
494
478
479
484
480
494
524
534
516
482
458
458
470
489
479
477
495
504
505
513
508
493
468
469
470
479
451
427
455
502
531
536
524
512
496
500
516
509
489
478
502
542
555
508
485
480
484
485
479
491
496
494
483
487
485
502
530
535
515
494
482
485
483
466
459
487
527
552
555
554
528
504
495
502
495
482
477
489
521
541
538
521
503
498
498
502
506
508
508
505
495
502
506
503
505
543
566
554
523
533
567
561
552
564
582
583
552
523
514
498
497
496
487
501
535
556
554
547
516
485
512
543
552
566
573
574
572
538
507
496
504
525
526
520
531
531
519
501
481
479
483
482
476
482
476
501
544
651
761
831
875
925
958
963
907
834
756
673
567
461
380
326
305
307
310
331
369
398
405
421
443
464
479
476
454
448
463
482
487
480
472
478
494
509
481
464
472
496
507
504
492
486
489
477
471
492
513
520
500
492
495
494
488
460
455
488
509
480
475
485
501
545
566
548
525
519
522
544
557
547
545
553
544
535
538
539
525
531
546
547
528
524
528
535
547
565
562
560
554
535
557
597
599
603
597
583
591
606
606
617
628
627
626
632
641
630
630
641
621
593
553
549
576
586
574
555
569
574
567
580
598
597
565
503
487
502
506
486
462
461
478
481
461
456
452
433
412
416
413
417
414
409
404
393
390
402
399
404
407
425
421
387
347
340
365
371
378
380
406
413
396
401
397
395
399
404
416
397
392
410
421
437
450
459
459
460
448
453
460
459
431
402
410
419
432
465
480
466
460
485
508
507
488
466
466
477
492
467
446
431
432
474
502
509
497
496
481
468
458
474
503
524
526
494
491
514
510
491
479
475
483
502
508
499
468
472
498
505
508
518
518
503
493
488
498
480
464
477
477
484
490
483
464
468
469
475
507
514
515
522
518
515
510
488
477
480
494
507
510
503
513
537
541
513
499
513
489
495
513
503
499
494
491
512
525
527
539
520
505
498
515
531
533
542
534
539
529
484
502
515
522
523
522
516
515
508
490
473
491
498
509
519
534
546
538
520
513
525
512
491
509
530
524
505
510
536
526
502
494
521
556
549
516
507
526
533
500
506
532
524
517
514
502
477
481
500
519
526
522
532
523
512
494
491
510
502
476
481
499
516
522
509
522
552
559
561
549
531
526
526
521
510
508
532
557
564
571
557
554
527
486
472
468
465
479
501
523
527
559
558
551
538
531
537
533
533
538
522
514
515
506
486
451
453
485
517
536
557
557
521
488
469
448
455
478
519
555
615
663
731
811
864
906
933
928
897
844
794
715
598
505
431
384
347
321
334
374
374
371
380
400
402
393
425
459
466
463
452
462
477
462
448
470
480
502
508
482
495
504
473
470
509
532
521
509
515
516
478
438
437
465
492
499
479
464
481
509
527
544
541
524
486
457
471
474
483
493
509
543
559
564
558
547
531
496
494
514
509
534
558
544
528
507
516
556
563
544
554
562
569
557
564
566
551
563
574
562
564
578
607
600
574
588
623
644
643
627
591
575
595
588
574
572
586
585
600
601
563
529
534
544
561
546
535
542
546
522
478
466
481
491
493
484
457
436
444
467
453
439
428
424
413
369
341
367
378
372
399
402
378
373
371
380
375
374
399
419
406
368
332
336
374
423
454
468
448
442
423
433
448
449
441
434
438
426
462
502
509
518
513
504
488
489
487
459
425
428
440
446
444
450
462
478
494
497
492
490
513
521
519
522
514
499
501
504
493
500
510
501
506
521
512
520
512
477
463
488
497
472
455
472
483
487
485
487
504
529
535
542
552
545
513
487
499
534
527
491
488
476
460
478
503
504
494
491
485
496
494
479
467
490
504
496
505
524
544
544
547
538
524
528
536
534
544
553
543
532
530
509
479
479
484
486
496
511
505
524
567
574
561
555
546
552
553
531
523
508
491
494
520
532
537
539
544
529
499
503
484
484
512
533
555
563
576
572
560
523
496
492
490
502
514
531
550
532
519
520
531
519
503
487
489
509
529
527
563
604
613
593
572
549
544
550
549
522
529
533
528
524
523
531
520
500
485
486
509
512
562
594
592
574
540
520
503
506
528
547
562
575
573
569
541
521
540
553
553
565
553
533
519
509
489
474
477
500
556
598
611
583
540
500
497
503
509
516
540
535
492
489
518
538
533
520
493
478
512
531
524
525
521
519
555
602
669
763
844
899
927
945
939
872
773
660
560
493
458
403
330
307
324
358
405
438
416
404
441
473
497
483
452
443
445
477
498
510
510
503
501
515
507
500
488
500
525
523
524
524
521
519
539
521
506
546
581
573
562
560
563
522
487
507
515
510
514
518
504
486
493
521
548
595
578
542
543
563
558
562
572
548
536
544
568
566
577
582
564
548
554
585
608
611
596
578
580
604
593
568
578
607
621
606
618
622
625
643
647
612
597
618
620
603
576
578
616
640
623
589
586
597
604
580
565
569
588
573
555
580
577
543
528
520
512
501
484
445
438
449
454
469
481
498
479
453
417
375
384
379
350
349
352
369
398
406
425
444
435
412
403
403
392
386
378
366
375
432
446
453
452
424
412
410
418
423
425
418
412
423
438
425
435
469
482
470
454
450
439
440
484
515
504
471
469
485
463
446
463
489
487
469
454
450
485
518
514
498
475
456
471
481
484
478
468
479
488
483
487
501
502
485
481
489
502
515
516
519
514
486
464
480
497
516
508
486
493
530
532
508
500
498
492
490
500
508
525
533
514
504
511
521
508
492
468
483
499
502
529
549
545
534
521
491
477
516
533
529
536
530
533
531
524
524
519
474
486
511
509
507
502
487
487
512
516
497
469
475
464
495
537
537
532
523
514
505
506
522
531
513
500
484
487
510
525
516
502
492
488
498
520
522
497
483
507
542
548
552
550
540
519
510
505
525
517
496
499
528
537
519
498
475
462
441
441
474
481
508
524
500
505
519
522
510
493
494
510
531
544
554
568
559
560
553
542
526
526
551
565
556
540
504
486
483
481
497
519
555
572
546
509
507
551
567
567
548
535
528
542
553
542
518
538
555
541
525
526
550
551
535
533
512
493
479
485
480
496
519
505
495
495
490
510
550
555
544
538
525
503
517
602
688
769
833
877
928
944
892
799
726
637
551
482
412
354
333
336
336
359
371
377
391
405
408
429
453
466
478
476
464
459
470
469
491
499
497
491
453
437
464
506
512
464
433
454
492
524
529
522
520
521
514
514
507
510
512
492
482
483
491
488
468
481
499
513
506
504
516
517
539
546
527
517
532
525
520
522
552
561
553
552
552
552
526
512
510
536
552
573
604
605
578
542
531
528
535
554
563
580
595
608
617
609
603
581
588
616
632
619
590
568
560
577
591
616
618
616
629
607
577
552
524
504
496
504
519
524
555
571
551
521
496
479
456
437
431
435
429
410
390
381
404
415
397
384
388
396
403
394
385
385
390
358
328
363
394
411
427
431
419
414
400
387
371
353
365
370
387
394
390
408
406
411
413
419
430
450
425
410
438
425
425
429
438
457
459
451
441
436
456
457
463
473
461
468
476
492
467
459
490
514
496
467
464
465
475
503
512
506
499
486
476
461
451
454
474
513
520
516
518
501
489
507
504
501
517
505
496
501
495
492
484
491
493
474
478
494
521
525
501
464
461
479
493
491
484
485
485
491
492
464
435
420
462
529
547
529
506
473
467
471
488
494
483
495
510
502
499
491
491
498
493
491
491
476
454
426
446
501
538
531
512
504
493
481
464
453
436
437
461
475
485
482
491
515
529
516
509
514
525
485
472
507
513
505
505
504
512
514
524
536
540
523
510
506
492
462
461
492
518
521
519
521
515
525
520
488
491
516
521
515
497
477
491
502
523
558
551
536
528
501
482
490
502
540
572
571
541
505
477
486
517
536
543
556
535
523
535
535
520
522
529
547
554
542
516
513
530
529
523
538
554
545
537
527
535
556
555
515
518
536
552
552
535
523
511
523
548
560
536
509
509
511
480
476
495
516
497
476
496
530
533
502
479
486
491
494
526
552
528
510
518
528
584
641
702
771
833
899
946
952
888
812
731
617
532
487
413
358
326
314
319
342
371
385
389
377
388
407
443
477
481
493
510
504
490
470
461
476
490
471
474
479
494
507
489
473
464
477
486
495
534
555
533
502
482
455
461
490
518
540
554
547
536
520
502
465
455
492
522
517
520
526
554
562
558
518
502
517
545
556
559
555
539
521
531
550
555
552
543
532
551
562
583
590
600
605
587
574
595
613
600
580
581
586
595
587
579
584
609
616
605
584
599
607
606
604
599
590
582
572
560
581
605
598
580
558
558
542
506
497
504
523
529
508
498
480
452
431
437
449
441
464
475
441
398
394
398
393
400
404
391
381
382
385
381
376
391
411
404
386
373
369
375
360
346
370
390
401
408
414
420
429
428
404
415
429
439
434
416
424
434
422
414
429
426
410
420
461
471
468
461
450
466
493
502
497
482
461
439
422
453
468
475
484
493
490
468
469
480
463
424
394
423
475
508
503
473
469
482
500
488
457
470
496
501
499
495
508
489
452
450
453
462
468
479
477
477
469
461
456
453
455
457
445
457
503
515
499
476
482
497
522
527
499
478
443
434
469
487
493
483
476
471
458
470
471
474
514
524
492
468
473
504
507
506
507
507
510
500
502
505
495
517
544
535
518
512
496
471
459
449
477
519
561
558
548
537
509
490
486
478
478
497
505
513
510
528
537
506
489
471
474
514
540
556
554
523
507
526
541
550
559
552
541
546
561
555
531
531
518
514
534
539
537
554
573
564
547
556
565
562
554
567
557
532
533
551
569
602
595
563
536
518
523
524
525
520
509
524
546
544
564
580
592
588
583
587
582
606
618
594
550
536
555
583
589
563
574
579
579
588
580
574
570
556
540
559
572
568
562
554
561
573
587
590
599
593
567
537
534
552
556
543
553
561
567
564
553
551
550
551
546
532
515
518
538
560
588
595
609
641
696
748
820
888
930
936
897
819
738
660
581
500
419
361
331
336
350
344
345
358
388
420
449
484
525
522
517
508
489
493
503
504
512
512
508
519
528
521
521
517
519
521
514
526
522
504
503
504
517
540
548
548
543
534
538
542
532
533
530
532
530
518
494
489
492
530
559
558
542
541
569
574
561
580
570
521
514
551
558
555
550
562
588
591
579
566
564
560
562
567
561
596
611
587
575
578
571
580
599
611
604
576
555
560
570
574
573
577
588
588
593
595
595
594
575
542
516
504
543
583
589
564
515
478
487
527
539
508
476
480
489
472
464
460
436
397
390
392
390
391
390
362
338
358
370
388
405
375
352
362
362
356
344
349
348
321
316
323
340
388
430
423
397
372
384
406
418
435
450
444
425
415
413
435
442
431
414
415
433
442
441
443
431
442
469
486
487
486
487
501
503
490
475
482
502
515
512
504
489
487
473
471
510
519
510
513
503
485
518
536
502
455
459
492
524
534
528
526
526
511
514
518
518
521
506
478
484
519
544
547
543
546
528
523
554
564
519
514
540
564
555
528
516
514
520
546
562
546
522
514
509
519
526
520
544
562
563
568
565
551
525
528
537
523
515
517
526
546
538
516
530
543
556
559
563
548
559
549
529
505
491
537
565
558
536
537
545
549
567
565
535
496
516
535
553
560
533
521
540
557
565
564
566
544
540
581
593
570
522
501
512
511
503
516
522
519
510
536
581
587
574
547
517
525
557
572
558
545
536
533
508
498
500
528
565
579
565
547
522
526
544
550
555
520
514
534
520
497
507
538
562
568
564
559
578
583
551
513
514
524
513
506
527
548
534
548
561
571
583
588
591
584
547
529
503
489
517
544
540
517
518
559
589
601
599
591
581
553
541
537
548
554
540
533
557
578
573
565
541
505
505
537
544
516
465
453
472
519
541
539
540
560
624
687
758
827
897
942
955
965
894
791
688
602
520
451
386
342
319
325
353
365
375
417
440
445
453
469
475
477
476
485
490
497
508
527
500
472
495
500
484
496
527
527
528
532
525
525
549
510
456
479
525
518
486
476
481
495
506
489
487
497
511
520
527
537
533
503
502
511
516
528
543
547
568
554
539
541
527
528
523
515
512
514
531
530
550
567
561
551
552
570
579
568
564
572
560
560
569
622
648
648
624
599
598
609
583
583
581
569
571
603
615
610
604
601
596
573
546
552
564
584
595
585
578
553
531
539
547
535
509
498
493
500
489
461
442
442
448
419
392
387
409
424
433
430
425
424
400
379
368
374
371
374
357
350
347
365
379
376
393
404
405
392
387
403
402
402
389
390
384
371
396
417
404
406
404
396
416
458
457
426
414
418
403
402
410
418
429
443
452
462
475
482
475
456
456
457
455
436
455
468
482
496
493
464
469
482
462
443
471
491
486
468
460
471
476
475
476
484
500
500
506
501
488
476
466
445
461
473
463
450
459
478
498
486
465
447
464
499
514
507
481
465
482
511
518
517
513
506
500
494
465
470
503
521
496
479
484
501
520
512
493
491
487
488
532
542
519
510
506
494
482
475
481
494
506
520
528
535
534
523
495
465
476
484
483
501
517
526
508
488
492
484
509
540
556
534
534
559
537
533
535
521
498
484
490
487
470
480
495
520
535
525
497
498
522
526
510
527
515
482
462
496
529
530
512
493
482
480
492
507
499
496
525
545
527
516
505
504
519
527
519
507
484
480
492
504
515
523
508
492
473
470
468
486
512
547
551
542
523
509
513
501
514
504
517
532
532
540
511
496
490
497
520
539
517
514
514
472
477
510
531
510
493
496
489
494
504
507
490
497
531
524
518
529
534
542
523
519
509
491
473
492
533
520
507
506
526
518
518
510
495
502
507
487
454
457
491
540
586
618
659
731
820
905
946
948
909
860
800
715
629
524
416
343
320
327
333
320
327
356
392
422
388
378
428
470
498
492
476
463
460
462
466
467
467
484
494
492
494
505
507
479
481
490
502
502
504
524
526
508
501
505
490
480
470
452
481
512
539
529
511
511
540
565
544
510
488
480
490
489
493
510
524
532
552
559
548
553
521
494
499
547
575
570
571
571
544
556
587
606
588
560
556
569
575
589
583
575
546
536
548
553
559
563
576
591
601
605
618
621
610
572
551
571
582
584
575
568
560
555
558
544
536
530
518
504
501
489
486
484
465
450
439
417
386
369
379
375
388
387
393
402
400
393
375
382
403
399
387
355
342
352
350
343
329
336
341
334
353
387
381
376
399
408
406
389
383
385
377
375
372
363
372
403
437
464
489
495
451
419
398
384
400
434
463
464
459
454
470
497
490
472
440
439
476
498
496
477
474
469
461
444
432
455
487
485
465
463
461
469
462
455
459
466
462
473
485
470
463
477
460
450
471
520
540
517
484
470
472
484
490
475
467
475
513
536
539
539
536
518
484
487
488
468
476
483
494
493
501
485
483
462
461
479
493
492
475
478
503
512
517
518
502
498
483
466
502
531
536
526
510
506
497
492
516
496
453
428
426
467
502
502
520
536
537
532
513
507
527
555
528
535
536
523
508
525
536
534
523
536
550
542
504
513
527
541
552
536
542
549
570
568
539
516
492
441
442
479
515
525
522
501
488
490
514
535
536
523
524
549
594
585
573
578
558
546
527
526
519
521
546
553
557
573
583
575
528
520
526
543
582
567
527
492
479
473
490
534
592
627
638
610
555
516
520
521
515
534
556
581
587
566
550
547
521
496
518
554
571
552
515
520
536
537
534
512
488
486
492
484
509
526
538
560
561
555
543
546
560
549
535
542
526
539
557
576
574
586
647
722
782
837
907
962
949
877
785
689
607
539
469
398
322
271
281
327
389
423
446
447
457
483
497
485
469
467
506
529
556
580
561
524
503
502
496
489
490
517
530
541
561
560
555
554
550
559
541
519
517
516
509
514
524
532
521
539
564
575
539
489
543
577
588
579
564
543
541
561
579
590
580
589
599
576
559
587
577
579
554
574
639
650
633
602
569
570
603
600
562
556
580
587
582
596
610
626
618
625
645
634
614
598
620
630
653
655
631
633
647
626
595
605
623
635
612
594
569
552
574
588
573
562
543
546
552
573
575
535
510
500
476
467
453
418
403
370
393
415
444
468
445
434
412
382
377
389
394
406
419
439
437
416
391
344
341
382
396
380
365
382
427
469
484
470
455
435
424
419
420
421
452
451
432
431
424
420
439
439
440
418
399
414
475
507
512
510
476
454
448
472
498
496
493
496
508
495
468
449
468
480
468
457
461
481
484
483
488
494
512
509
522
541
540
496
481
494
501
503
493
484
522
544
533
545
553
568
549
517
491
481
484
516
534
538
567
589
591
579
570
558
526
500
509
527
547
575
573
552
538
543
539
528
554
574
596
599
569
548
554
583
568
549
577
599
597
571
527
480
473
492
521
545
590
572
542
540
543
557
547
549
553
543
531
543
545
565
602
619
583
570
552
520
496
513
537
535
528
510
514
527
506
508
524
517
537
536
518
543
572
579
557
530
495
467
469
490
508
515
531
541
531
548
546
529
502
502
507
512
515
498
464
486
508
519
512
458
399
422
455
464
494
504
435
445
467
489
530
546
515
473
484
528
534
494
452
458
471
474
461
480
487
493
469
468
466
461
457
485
515
512
490
444
398
424
458
481
470
479
471
490
504
483
449
434
453
458
446
435
445
468
487
476
438
385
392
433
479
551
621
684
757
830
865
876
807
699
615
588
578
543
493
402
325
284
285
328
375
387
413
463
498
487
487
512
518
511
507
484
448
427
447
475
513
513
497
497
494
458
448
500
533
517
491
485
492
504
521
497
472
507
547
570
584
606
580
541
536
505
497
489
491
494
508
504
526
549
542
534
542
562
567
566
559
539
519
547
558
563
570
568
555
529
516
525
541
580
598
580
551
573
595
594
576
558
547
533
526
545
574
599
595
585
559
525
504
496
495
491
469
485
527
544
536
510
495
491
500
497
503
503
494
485
482
500
528
526
482
434
361
337
343
312
290
297
292
278
253
250
267
260
238
215
208
211
241
258
264
265
248
239
217
197
236
276
287
306
320
335
313
274
279
299
324
342
352
353
344
349
349
356
365
403
426
417
397
372
377
388
393
404
413
409
404
388
415
434
464
476
490
486
487
493
488
489
473
477
493
474
459
453
458
484
483
452
470
502
522
543
541
539
552
560
563
539
516
511
501
501
519
516
478
469
503
543
538
490
464
463
444
448
479
531
584
578
531
501
460
445
454
483
502
513
513
505
493
504
549
602
583
550
515
507
498
495
494
503
504
492
496
496
497
479
466
481
501
498
473
475
470
469
507
533
550
563
532
509
539
583
588
552
521
515
519
527
542
578
578
548
548
585
579
528
510
488
458
451
460
462
465
468
459
469
476
477
474
512
567
567
573
581
560
524
501
498
478
473
472
473
494
518
517
489
484
526
579
613
635
593
541
519
529
544
534
530
525
490
445
429
460
531
560
543
502
474
463
468
507
531
528
529
519
509
502
491
496
535
550
543
538
521
496
491
532
538
504
462
472
512
512
493
447
422
420
439
472
483
471
443
406
418
459
456
427
426
444
452
465
508
576
671
783
876
919
907
868
810
745
660
567
469
382
288
260
258
258
283
311
320
309
302
310
360
370
372
406
441
450
440
443
446
440
421
424
446
419
421
424
425
431
432
426
444
455
463
480
500
483
482
472
465
484
494
498
490
504
516
500
491
486
504
512
511
504
498
510
518
536
546
530
519
511
519
522
492
472
475
506
510
522
555
573
570
569
544
553
592
570
577
591
591
589
573
560
550
525
545
590
629
649
624
613
587
587
622
623
653
667
642
635
645
642
637
643
668
671
618
601
598
607
610
620
641
628
593
568
528
514
525
526
525
503
489
489
500
521
536
543
521
463
452
450
438
448
454
467
463
471
482
489
472
472
465
459
446
443
417
416
429
438
455
459
485
517
523
496
484
490
505
516
501
499
482
459
468
496
508
526
558
584
568
539
487
451
464
472
492
505
519
535
561
599
628
630
587
547
504
497
493
487
517
556
574
573
553
534
524
568
590
570
531
501
465
420
453
548
595
574
561
582
622
611
576
539
524
536
547
562
572
581
577
547
516
518
508
488
481
485
491
519
546
554
518
468
464
507
541
544
532
551
562
546
534
516
523
579
629
624
582
558
569
574
552
523
504
521
528
516
548
567
550
560
578
588
553
500
491
497
512
529
540
551
582
598
580
560
569
594
582
555
540
518
524
550
600
615
609
593
574
555
548
509
520
545
556
576
593
615
621
597
571
562
577
568
528
504
505
508
522
557
583
582
562
573
601
613
585
546
541
550
525
504
550
586
596
616
625
607
603
595
547
511
507
500
540
576
548
533
544
566
579
593
576
564
556
517
496
516
548
590
615
600
557
537
526
513
531
550
538
546
577
597
572
517
482
507
538
563
586
590
578
570
578
582
600
639
691
768
858
916
930
912
893
843
751
658
547
448
422
412
383
345
325
346
389
449
496
508
514
505
491
497
487
471
488
523
536
543
555
536
475
443
448
489
523
542
551
551
534
526
556
575
582
543
495
506
526
528
527
518
512
515
525
532
542
580
579
574
554
520
501
528
586
632
626
581
561
558
535
533
557
581
591
587
593
601
596
603
566
534
554
575
586
609
630
643
659
676
657
625
619
610
596
602
592
605
632
655
653
634
623
641
639
638
649
646
629
613
616
620
621
636
629
610
581
574
559
544
545
550
571
590
581
583
581
555
512
488
477
471
481
476
462
446
443
442
435
427
397
403
406
394
389
403
433
462
472
476
466
464
452
455
466
453
445
421
388
369
386
396
409
454
477
468
465
463
478
473
471
492
499
508
508
510
496
476
472
471
467
490
520
527
510
500
523
527
511
492
493
495
490
492
483
485
503
508
498
535
523
490
486
498
513
524
531
528
532
534
545
519
506
505
520
525
524
505
509
525
536
533
527
528
525
518
516
520
529
540
554
543
521
499
476
514
530
540
536
553
550
516
526
542
544
538
517
531
527
518
539
546
542
542
549
564
593
574
555
545
526
506
480
497
526
535
531
491
501
532
538
561
581
580
552
514
514
507
518
562
576
562
565
572
554
551
550
538
510
506
501
485
502
528
512
517
559
578
577
571
540
533
546
550
552
562
580
581
545
511
488
470
478
493
508
532
538
527
529
523
514
514
543
558
556
542
515
479
492
508
499
528
554
559
544
523
520
492
483
504
519
529
530
520
493
467
476
494
530
551
539
521
527
533
538
521
489
473
465
487
504
521
540
517
473
463
471
479
463
448
480
518
504
477
450
474
494
516
514
499
532
576
638
699
768
836
910
945
935
877
796
712
626
527
436
358
305
265
259
262
272
291
360
422
450
480
491
479
477
462
461
478
493
499
509
539
536
491
452
431
460
490
494
494
492
467
448
442
439
477
551
570
542
503
491
505
512
513
526
529
548
542
503
503
525
557
554
544
545
523
516
518
545
578
574
556
536
512
487
494
513
540
553
545
553
551
531
542
565
576
576
540
513
519
562
582
583
599
602
572
550
554
556
579
607
585
557
541
544
559
604
621
601
575
555
558
541
538
528
542
564
575
546
508
491
483
490
502
512
513
496
454
406
410
432
414
396
425
424
413
412
397
405
417
421
386
355
337
343
343
356
364
354
335
331
342
368
386
385
384
348
356
390
396
388
394
396
388
378
370
363
348
365
376
389
389
397
403
413
415
406
407
422
443
451
431
414
425
434
443
456
475
491
478
449
404
390
410
434
461
470
473
476
482
487
473
462
455
442
431
409
395
444
481
501
526
527
529
536
531
489
472
442
432
438
435
439
454
453
432
448
474
492
473
464
445
458
474
487
476
478
476
475
532
566
542
512
498
491
492
494
506
511
513
488
477
497
502
473
463
466
477
502
505
498
520
508
477
504
533
514
508
532
542
549
540
519
503
484
475
488
486
467
463
461
483
498
505
520
510
502
472
470
514
544
561
561
523
459
454
483
514
527
520
507
507
501
525
543
539
517
504
500
480
488
506
518
533
531
512
477
461
499
521
521
509
492
492
512
524
515
528
551
558
564
560
543
527
507
492
502
497
512
535
538
532
541
531
507
513
540
576
583
575
560
531
521
531
507
485
479
494
526
516
523
540
530
523
519
529
546
526
504
516
533
518
495
514
504
494
489
483
498
506
496
501
510
491
489
492
489
487
483
481
486
486
501
499
556
620
650
730
842
921
945
953
925
859
794
707
583
469
378
318
292
295
311
308
313
326
334
370
386
444
482
487
485
492
500
489
474
446
439
446
453
464
498
498
490
506
508
512
532
527
512
490
482
463
444
453
474
498
517
479
470
507
510
515
513
512
515
495
498
516
504
500
505
500
507
510
521
523
517
492
468
500
518
522
525
544
550
536
517
504
505
542
582
598
595
584
583
566
544
543
551
545
543
550
558
551
558
592
617
607
594
567
547
546
549
554
565
573
570
563
556
548
543
536
515
518
522
530
539
529
517
506
474
440
434
449
469
466
450
432
419
414
423
433
428
409
396
398
404
388
358
329
317
337
344
326
313
319
348
394
430
434
397
357
364
347
323
335
357
398
425
436
425
407
398
412
421
388
386
409
432
440
406
422
456
475
448
415
402
406
461
489
501
508
521
527
504
486
478
478
486
496
477
447
455
483
490
475
496
514
488
469
453
458
479
477
488
508
487
449
476
490
485
501
531
544
529
513
516
529
516
475
460
459
469
481
493
496
487
470
451
472
477
484
475
486
495
514
479
494
501
507
505
502
501
501
506
494
477
467
458
443
469
515
535
502
492
481
488
499
487
480
493
506
495
507
526
516
506
505
517
525
483
436
438
465
502
524
537
549
548
538
520
486
484
495
488
471
470
485
517
533
541
550
535
505
471
468
488
485
474
502
535
536
535
544
532
525
546
549
525
502
500
493
488
503
519
520
517
519
526
535
542
529
518
520
498
484
494
504
505
487
476
480
506
526
559
560
553
560
544
530
538
554
558
577
592
596
584
563
529
522
508
504
510
520
513
504
531
556
542
529
551
548
521
518
559
585
604
593
564
526
509
512
512
520
536
532
519
519
498
481
482
507
503
535
590
603
592
619
653
683
723
793
851
897
913
918
906
839
734
617
519
449
367
315
314
309
337
389
425
434
451
481
499
504
498
505
518
523
491
464
457
490
511
519
492
492
491
460
462
524
569
568
547
527
498
503
534
551
573
571
550
534
543
543
527
518
518
520
560
579
561
540
548
576
582
567
545
540
556
555
517
516
548
582
570
550
559
542
521
519
529
560
572
557
534
525
544
565
577
566
554
577
591
597
610
606
594
583
561
557
543
534
546
558
550
567
577
585
594
614
614
592
571
576
588
575
553
559
568
551
533
522
506
504
515
503
481
477
501
516
513
511
510
465
410
395
421
441
479
483
453
438
427
438
434
430
444
452
432
412
401
378
348
354
412
457
465
446
433
425
433
440
458
481
477
482
492
480
454
453
454
472
477
478
485
505
533
548
534
503
513
523
522
503
471
477
501
509
512
506
492
479
492
511
520
545
551
543
532
536
552
580
558
539
547
532
534
545
514
492
492
489
487
503
493
476
499
505
494
519
558
559
539
520
493
501
525
525
519
508
487
480
493
523
519
543
561
571
541
501
509
518
510
487
479
462
469
492
505
507
501
520
529
535
554
528
507
519
516
502
520
544
538
548
536
533
537
510
510
523
516
492
512
540
529
509
518
567
599
590
561
526
496
491
492
504
510
523
551
576
586
572
548
518
500
500
529
551
557
553
543
531
523
516
526
554
569
552
539
534
529
548
564
580
566
551
535
528
499
498
530
546
547
556
543
543
538
525
478
447
487
531
547
560
572
562
564
574
571
550
554
563
568
578
586
593
582
585
587
565
553
543
535
531
548
580
598
583
541
526
526
523
511
516
509
515
519
527
536
541
510
472
477
508
524
510
495
517
540
551
532
510
488
487
511
516
510
549
621
711
793
875
930
944
905
844
786
719
645
572
490
410
359
322
308
311
327
330
356
409
447
483
503
472
445
446
463
491
516
522
536
538
527
488
459
436
463
495
508
528
528
540
533
533
545
535
528
531
535
540
545
566
567
552
540
509
516
537
554
552
530
521
552
573
552
525
541
583
617
634
629
622
614
582
566
571
566
556
541
583
618
621
621
616
599
585
578
577
598
588
585
616
624
621
604
586
585
586
588
595
591
602
621
634
632
620
615
614
597
583
577
574
572
536
543
567
580
576
563
540
521
504
495
488
506
524
525
505
485
466
441
443
434
417
431
447
442
412
396
395
379
363
357
364
386
369
335
340
338
327
334
337
347
357
384
433
414
376
358
372
388
396
407
424
417
404
387
360
354
346
356
387
386
378
376
400
421
425
376
324
356
420
436
431
431
423
419
449
460
450
430
428
425
443
451
472
473
463
459
468
473
480
489
481
478
485
489
466
459
460
449
474
478
457
446
471
475
500
539
541
500
480
486
496
486
462
458
459
470
479
474
480
467
448
438
468
475
497
516
497
493
497
497
458
432
461
489
489
484
487
480
476
488
494
492
491
487
490
499
484
468
483
488
487
490
483
493
495
488
505
504
493
499
525
509
470
451
465
490
500
515
512
489
496
496
503
500
478
481
518
558
550
503
486
500
503
501
484
495
490
487
484
479
471
478
484
473
463
457
462
455
470
506
530
533
527
528
501
491
492
483
478
469
479
470
477
497
527
556
528
486
470
488
503
503
487
468
495
520
514
506
497
497
517
519
518
506
493
486
488
507
517
521
500
506
529
513
515
538
545
528
510
489
490
506
527
538
531
523
517
525
540
542
519
488
477
482
494
486
475
479
496
500
509
482
461
472
444
438
491
538
540
516
509
552
622
689
765
860
939
963
926
865
792
717
634
536
449
363
315
261
246
263
301
350
356
366
406
449
476
485
488
465
449
439
440
448
425
420
435
451
470
465
474
472
475
488
475
459
488
509
502
487
464
440
422
427
443
467
495
517
520
522
503
485
491
515
534
524
503
479
474
493
494
476
504
518
503
476
491
537
543
542
548
569
562
550
530
512
520
555
571
574
589
577
557
570
606
643
637
604
568
544
544
558
551
561
604
630
627
610
617
622
622
615
600
594
593
619
633
613
579
564
567
575
591
590
561
558
558
555
542
500
477
478
472
475
484
459
437
431
412
395
402
418
423
418
413
413
420
407
394
389
365
342
316
319
342
365
392
383
341
353
363
373
396
416
401
351
340
359
362
366
378
362
354
356
364
399
416
393
361
367
392
413
408
414
414
402
411
417
402
375
387
428
449
444
445
464
450
451
461
468
456
445
451
462
460
446
445
438
427
439
447
419
409
424
448
449
453
458
453
442
436
445
451
453
472
448
430
423
447
488
496
474
439
446
469
460
462
480
471
444
442
450
466
463
457
459
456
460
456
447
437
443
480
502
483
470
479
509
515
489
477
475
476
491
507
503
500
477
473
490
498
501
498
498
500
513
504
482
493
504
519
503
475
485
495
503
500
491
480
489
484
501
519
527
517
505
520
530
525
514
498
500
491
491
500
529
546
560
543
529
524
521
516
487
456
469
488
502
502
521
540
534
508
515
525
513
509
511
509
519
526
494
488
497
502
502
503
536
546
521
494
488
498
526
557
553
540
530
531
538
524
538
548
553
533
522
539
550
551
557
552
536
543
521
484
463
506
548
539
505
525
551
565
568
566
554
533
515
492
489
500
519
523
517
527
523
544
579
595
566
517
494
510
513
490
517
555
593
622
653
715
799
865
909
927
925
866
829
777
675
549
442
364
330
342
345
348
354
348
391
426
421
450
496
524
541
549
563
569
548
506
493
493
478
472
505
522
513
507
528
545
541
565
567
548
532
539
566
566
552
533
523
547
561
552
555
553
519
504
533
569
556
523
529
587
605
577
566
550
528
536
561
578
585
586
559
523
518
528
549
587
603
606
605
609
599
576
570
578
611
639
651
643
633
618
617
607
609
639
659
646
632
630
616
592
577
574
589
586
584
584
570
577
598
630
636
630
629
604
600
604
590
595
596
589
571
557
527
523
533
566
563
543
510
472
401
370
362
352
391
416
426
401
388
401
426
433
412
392
384
350
362
390
391
390
401
405
434
434
381
350
369
397
415
419
413
427
446
441
443
432
415
393
378
426
454
451
435
435
436
460
494
487
475
468
460
447
446
473
484
482
485
487
487
502
496
483
503
494
462
462
511
554
543
511
488
479
511
549
554
539
514
507
522
536
522
497
505
503
498
523
536
529
528
529
531
531
541
547
524
505
510
537
550
567
571
558
530
499
510
516
512
527
539
536
531
524
561
598
558
484
514
573
586
583
579
580
579
579
552
522
542
551
548
554
559
562
579
568
549
539
568
586
567
544
535
550
575
589
573
563
557
569
568
562
546
555
566
561
549
543
545
532
540
562
562
535
527
513
515
532
542
529
520
527
525
524
533
543
540
519
508
536
544
542
559
574
562
520
486
500
506
517
520
531
527
501
503
557
595
575
546
518
507
520
535
545
530
510
516
557
571
564
552
558
571
576
556
543
554
554
535
504
500
524
545
528
527
530
545
569
569
544
539
545
559
550
549
556
531
500
504
517
531
519
498
500
521
548
558
554
544
536
526
513
526
545
618
708
779
828
851
903
925
923
879
812
736
653
578
489
422
393
378
370
373
382
413
453
465
465
491
489
469
446
456
488
515
531
533
529
548
540
513
529
532
527
531
551
563
565
556
539
521
513
515
526
538
536
538
554
565
529
529
534
551
566
573
581
567
556
566
562
570
556
542
549
532
534
526
541
558
572
583
594
601
598
596
583
569
558
541
542
566
581
573
559
572
584
576
590
581
559
578
595
589
598
611
628
633
633
629
627
607
585
589
597
610
603
585
547
539
538
567
589
603
593
563
546
534
531
514
498
498
510
515
494
475
476
463
455
441
422
403
408
415
408
403
398
385
364
359
354
374
395
403
394
395
388
371
355
367
378
375
386
383
367
354
347
344
379
404
403
394
399
414
409
393
376
407
431
419
392
420
442
470
465
423
441
459
436
447
465
461
463
475
479
449
442
431
433
450
483
512
502
494
501
507
519
527
524
500
509
525
512
497
483
467
482
511
524
502
487
505
523
556
564
525
484
446
449
478
482
482
491
491
506
521
531
529
506
480
460
448
453
486
518
522
495
476
480
477
501
513
503
480
482
490
489
487
500
506
521
532
517
497
482
487
496
487
464
466
483
489
486
525
583
581
509
458
480
490
462
474
511
528
525
543
551
516
520
544
534
524
539
526
519
549
564
537
510
492
483
477
486
534
554
529
528
524
512
501
493
490
491
493
491
503
504
517
532
546
562
552
496
450
454
489
502
508
521
515
502
509
483
473
467
455
454
473
496
517
503
469
481
507
513
499
515
517
520
530
539
523
498
478
468
475
495
526
529
489
498
514
525
516
514
505
499
505
506
512
498
522
517
523
506
489
519
539
529
503
492
496
477
480
470
469
479
503
526
552
535
498
458
438
455
469
494
533
567
587
625
691
763
817
882
932
932
882
803
687
584
508
430
372
315
299
309
329
367
354
363
409
462
478
471
465
449
453
452
450
463
480
478
458
456
465
492
499
484
475
474
490
480
473
472
457
465
478
503
516
493
472
481
469
468
484
495
508
502
447
450
498
528
528
518
533
535
514
505
513
513
483
471
487
499
518
530
532
533
540
546
518
503
526
549
581
605
599
604
593
596
597
572
544
531
566
600
606
610
609
596
576
547
538
551
599
637
640
638
634
625
592
553
561
564
548
557
578
593
598
597
591
576
541
492
471
493
501
486
480
452
417
421
405
379
385
397
392
398
400
383
342
306
316
342
332
359
381
379
387
388
372
340
342
369
375
361
332
341
369
369
378
382
388
398
393
413
421
396
385
383
382
380
379
382
379
375
399
445
467
472
461
436
419
451
442
450
444
416
432
444
443
439
436
452
469
475
462
448
456
481
471
458
467
490
493
477
481
487
472
482
483
489
474
480
497
484
470
454
466
470
472
472
481
490
491
487
475
459
446
454
457
461
461
473
506
542
543
534
527
496
460
489
524
533
538
555
545
533
504
483
493
497
489
497
502
497
508
529
536
504
463
469
491
516
520
536
532
520
535
530
518
518
510
473
466
482
508
512
495
503
517
499
499
503
486
466
479
483
494
511
504
508
517
510
501
510
536
521
500
512
511
489
482
500
513
521
515
516
517
509
486
467
481
508
510
522
505
481
492
500
515
550
564
549
519
500
490
488
469
447
452
462
464
481
501
535
545
537
493
448
428
446
486
522
539
516
517
509
489
473
481
499
496
506
506
488
482
482
487
476
467
469
474
496
499
487
480
468
500
533
509
476
482
486
494
517
518
486
463
474
489
492
489
479
474
490
477
482
452
461
505
506
504
525
546
575
620
647
720
813
884
921
934
918
855
780
727
655
562
438
351
313
286
276
299
324
360
398
444
468
487
506
518
510
486
482
491
486
466
450
476
534
540
522
518
530
519
507
537
557
542
534
518
536
544
533
503
506
519
524
536
533
519
503
506
529
535
529
539
552
586
585
562
551
536
538
554
569
589
579
551
555
575
561
547
584
607
608
601
595
567
574
598
599
585
569
584
591
585
610
627
640
672
695
673
663
638
622
612
616
624
617
606
592
595
608
626
620
630
658
643
625
611
626
631
611
608
613
629
650
656
631
616
593
527
499
510
508
493
480
490
484
477
485
510
512
474
458
447
417
417
394
386
400
426
461
474
452
412
380
394
442
460
461
458
443
423
414
413
432
440
419
400
418
429
412
417
426
438
465
481
461
446
432
427
446
469
473
495
503
489
463
462
501
540
528
486
470
472
488
499
499
496
486
489
470
450
478
503
509
531
559
561
529
514
492
474
492
519
523
488
476
476
467
476
514
537
529
511
499
499
514
489
476
507
526
530
522
514
496
495
494
503
523
519
507
516
538
536
530
518
515
530
536
535
512
494
472
486
517
529
483
434
392
433
489
496
491
504
516
515
538
549
550
538
523
499
490
515
529
535
538
519
503
518
507
504
522
542
532
516
498
494
513
531
547
541
548
537
531
543
541
541
558
541
512
523
536
535
515
479
468
506
543
544
536
547
537
554
568
542
480
479
497
532
564
539
510
493
484
494
520
556
562
559
532
517
519
534
554
532
521
564
560
531
536
565
580
585
554
503
501
506
518
541
558
566
565
568
570
574
556
534
514
515
530
550
542
567
581
568
538
504
475
467
470
506
528
536
545
528
539
542
551
536
513
504
468
449
476
529
551
559
568
590
610
606
611
635
694
748
828
906
941
935
879
774
664
588
494
401
332
295
292
322
357
371
389
416
438
482
502
488
469
492
518
508
490
470
487
505
484
458
474
505
518
535
539
537
532
525
537
545
550
550
551
543
530
520
545
557
545
518
525
528
501
486
525
581
602
608
600
605
613
569
551
550
565
583
571
579
593
576
582
586
577
566
559
571
563
591
617
614
602
593
594
613
618
630
634
634
618
602
607
604
623
641
637
620
608
603
622
621
613
607
637
654
664
665
667
642
596
580
568
581
576
562
558
576
579
547
518
527
545
552
538
529
517
502
486
467
487
501
476
439
443
455
450
432
406
392
360
351
383
397
392
376
382
389
411
435
435
401
382
370
361
359
408
414
398
395
385
383
410
403
413
436
446
441
433
445
433
427
432
437
430
422
428
440
462
472
490
459
439
466
464
448
457
451
431
443
439
440
466
487
502
527
514
489
491
509
537
543
524
493
491
488
476
496
514
524
526
530
515
513
516
502
469
454
465
516
555
570
564
550
536
540
545
536
498
477
468
452
481
512
524
520
501
494
480
466
501
505
492
457
464
483
502
523
536
545
529
503
491
485
488
483
490
506
493
464
469
475
494
517
535
553
548
535
526
495
471
462
485
494
485
492
488
478
510
531
548
545
535
522
527
557
540
515
516
505
489
487
477
462
470
495
522
537
519
496
504
507
482
455
485
505
518
536
570
577
570
559
545
514
489
485
500
512
508
493
523
562
576
568
535
505
498
491
497
497
519
539
522
506
517
503
490
504
530
518
500
516
537
536
524
513
505
515
531
533
511
509
525
524
494
482
501
508
473
484
521
538
539
532
526
507
489
455
416
418
453
512
527
520
494
475
465
464
464
458
478
487
476
488
493
473
472
482
483
455
450
521
614
684
742
853
935
967
937
862
773
659
562
490
414
348
311
269
254
296
345
396
438
422
391
366
397
447
491
515
481
455
439
427
434
446
468
463
435
436
431
431
435
440
439
421
431
462
486
503
516
513
508
496
478
452
463
501
536
539
535
565
575
546
540
525
477
468
506
513
500
492
498
512
521
545
577
583
571
564
520
532
553
552
573
590
612
627
623
602
584
585
603
630
646
645
642
637
620
618
640
622
600
601
632
639
607
592
644
645
632
637
620
598
592
595
635
670
654
608
588
582
584
580
566
544
522
528
553
527
505
485
463
468
463
441
416
406
410
418
424
417
391
370
392
388
378
380
369
349
345
362
378
371
380
405
410
394
383
375
370
386
381
341
313
324
327
368
405
408
382
381
405
417
418
441
445
416
392
386
376
396
408
425
426
415
426
457
473
452
430
435
457
460
441
447
457
479
493
480
441
418
443
460
456
452
459
486
477
465
428
419
449
449
485
503
509
519
521
484
455
476
479
499
500
480
467
470
468
453
456
448
468
516
520
495
470
469
495
491
460
450
479
538
544
539
548
562
554
517
489
516
554
576
577
561
561
570
562
550
517
510
516
537
560
574
566
576
586
586
582
568
555
552
574
584
580
564
546
561
581
585
573
530
534
523
522
515
522
541
566
581
569
561
549
531
531
544
570
588
538
492
523
526
516
510
507
518
531
543
541
533
520
510
484
448
464
517
524
507
509
512
522
539
536
539
536
521
512
506
524
518
478
488
505
432
367
413
443
480
489
478
480
462
453
480
505
484
494
513
511
488
466
446
442
456
469
493
498
501
469
440
401
419
443
433
444
468
466
443
443
428
415
416
405
404
451
480
466
456
459
462
451
439
428
419
409
403
416
427
438
423
420
438
459
466
439
432
445
447
441
429
427
436
477
509
509
531
615
699
790
874
910
896
861
815
740
651
567
487
402
326
289
304
334
345
354
380
380
380
399
410
412
413
425
462
495
481
464
479
494
482
454
442
470
491
489
481
490
491
473
473
504
522
529
540
540
530
515
513
519
532
532
524
538
549
567
564
568
558
527
518
544
556
529
533
567
550
555
567
570
552
552
552
551
551
541
529
541
558
565
534
530
559
603
619
617
622
628
632
637
625
580
571
598
619
628
634
625
602
606
614
588
554
591
645
634
595
570
583
639
658
652
654
652
647
641
623
601
580
561
553
544
553
564
535
496
477
490
485
488
485
474
432
390
402
419
415
429
421
427
439
434
421
402
368
352
351
356
370
343
348
394
441
427
395
402
433
434
404
400
389
379
378
374
405
429
449
462
454
445
457
452
433
373
356
394
438
474
497
505
498
480
474
485
496
491
487
485
484
480
467
481
493
477
475
490
468
470
468
480
487
468
450
470
525
569
577
541
543
533
532
531
525
531
538
530
521
516
508
484
470
467
501
514
506
509
518
531
489
483
503
502
498
499
521
529
539
545
536
513
515
518
514
497
494
502
517
503
480
484
522
539
536
534
528
489
447
424
429
466
515
539
527
515
504
491
488
500
511
516
498
496
513
502
513
512
495
482
471
486
508
518
523
515
513
520
535
528
514
516
496
506
506
515
522
534
536
525
547
548
560
584
575
528
474
475
505
510
525
543
554
544
538
529
513
507
507
517
529
512
479
502
507
489
496
515
504
505
502
509
542
566
559
560
558
522
462
445
502
548
583
590
570
546
510
514
543
573
574
574
574
570
553
517
510
516
527
550
563
557
547
541
526
532
561
591
606
589
561
557
542
522
508
509
529
527
533
525
501
488
480
480
490
480
509
545
574
578
591
616
633
657
711
770
825
883
925
955
945
867
765
670
579
489
402
334
319
358
396
429
439
432
424
443
439
444
480
518
514
480
473
501
524
530
508
477
451
447
502
523
549
563
553
537
493
494
494
527
531
533
554
524
513
517
507
493
525
557
543
515
504
504
493
490
521
560
576
586
562
533
536
537
554
549
524
553
576
584
562
524
528
570
585
604
596
580
582
564
540
571
578
571
579
596
591
575
557
579
610
626
613
593
610
620
630
633
620
624
652
656
648
629
603
562
567
586
586
587
579
573
568
587
615
602
574
570
557
528
516
500
494
496
484
472
446
467
497
497
493
494
505
506
489
475
444
419
406
395
393
400
412
428
422
415
436
457
438
422
424
433
417
432
458
450
468
507
523
530
513
466
416
416
448
471
492
516
526
528
557
567
548
517
499
489
467
459
471
487
508
540
579
583
557
524
495
494
510
515
521
509
500
504
536
564
566
562
575
575
545
567
597
567
543
532
515
491
507
522
514
521
522
546
567
539
493
494
507
535
540
514
505
499
509
528
544
524
507
513
521
507
499
504
518
519
512
496
473
489
509
507
529
543
530
518
500
483
480
503
526
542
530
532
539
545
538
519
498
497
499
497
508
522
530
544
515
487
504
525
528
496
484
480
492
509
529
524
531
538
557
551
552
540
524
534
534
535
540
544
559
550
514
498
492
520
539
524
540
554
539
541
537
519
508
504
506
508
521
546
567
580
543
507
530
556
550
562
544
529
525
519
507
523
556
564
550
538
538
503
509
536
574
588
567
551
541
508
501
548
583
572
554
544
529
510
510
531
547
575
590
576
575
552
524
497
503
524
514
517
547
558
523
505
522
528
500
493
478
478
484
472
471
468
486
496
496
469
454
444
457
474
470
442
428
449
496
548
584
662
758
838
890
905
889
838
760
668
561
466
399
315
280
290
321
335
346
354
379
388
417
443
442
462
470
452
449
467
469
473
472
452
433
416
422
435
446
435
448
476
478
500
522
525
495
443
385
389
426
440
472
484
493
494
468
443
467
499
501
476
484
495
490
500
534
550
526
513
503
501
504
533
556
566
544
523
509
528
535
537
553
568
563
566
572
580
573
559
554
561
557
555
569
592
611
619
599
569
591
624
617
606
608
598
565
568
608
641
618
566
552
553
567
561
529
535
580
605
596
566
539
532
529
531
521
521
529
524
474
442
441
432
417
405
413
399
357
370
381
357
356
374
371
375
372
403
415
379
386
419
402
384
390
416
399
384
406
401
382
382
359
331
353
369
392
412
406
388
403
425
444
447
435
424
398
392
423
459
493
492
474
476
466
459
454
444
440
452
458
466
470
466
457
451
448
469
475
487
507
505
504
484
463
432
445
479
503
507
489
454
476
511
526
532
522
510
485
480
491
496
470
441
435
451
480
508
522
534
546
534
513
501
498
493
495
523
538
533
509
503
527
553
554
562
520
472
431
434
452
476
483
470
461
478
500
495
487
494
473
482
480
484
496
497
480
479
508
531
548
543
510
473
458
456
463
456
444
443
468
492
492
460
454
451
453
460
482
484
486
479
465
434
428
454
474
492
507
507
492
478
483
475
459
469
494
514
498
442
412
433
483
516
525
508
496
493
483
487
504
504
483
471
484
484
467
458
470
461
442
445
500
539
545
517
498
510
514
488
464
464
490
518
517
491
490
500
523
514
505
533
543
536
530
531
527
477
464
473
500
512
520
513
502
506
517
513
484
512
529
558
567
580
595
581
533
485
479
485
497
506
491
503
525
523
523
506
457
422
461
522
536
522
522
534
521
509
527
520
535
579
655
734
825
910
960
966
921
858
798
707
597
483
385
336
295
261
263
295
351
423
455
450
454
469
473
475
437
409
431
486
496
466
440
443
447
438
454
457
460
452
445
470
477
449
454
468
470
470
479
482
485
510
523
506
481
463
459
481
502
490
471
458
467
465
479
492
492
519
532
538
539
519
524
513
514
534
546
549
554
547
548
553
544
521
497
498
523
539
535
544
549
548
553
544
553
542
533
547
561
574
572
572
577
593
600
607
609
606
576
534
539
529
518
545
594
607
595
604
607
574
524
531
561
589
597
555
482
456
492
497
490
500
517
498
461
438
421
406
388
393
417
422
440
456
465
453
439
422
424
432
446
438
448
457
449
444
437
446
432
415
433
436
449
434
434
453
473
433
419
440
502
530
512
485
462
450
435
437
443
441
463
485
486
499
501
494
492
491
491
496
508
505
495
477
454
448
446
470
498
499
512
522
515
503
509
496
474
491
524
530
539
546
551
537
490
480
475
461
486
496
498
521
516
512
500
494
528
543
530
513
516
526
538
545
527
484
478
489
512
518
531
523
525
487
466
462
475
498
507
539
541
552
572
563
550
566
584
585
582
598
613
608
565
568
579
561
561
568
576
538
523
527
546
551
550
528
540
569
591
599
590
563
556
554
539
518
512
531
556
550
565
560
506
502
521
534
568
588
601
571
513
501
505
506
495
502
524
527
518
542
551
538
514
504
548
572
541
530
536
536
540
563
572
554
534
529
522
522
502
496
501
496
506
511
509
506
527
541
549
539
532
530
527
538
543
515
479
465
493
546
570
553
536
526
518
530
496
477
487
505
505
491
501
497
496
517
506
494
476
471
480
488
495
510
509
474
446
464
484
477
466
457
442
440
455
449
444
462
497
524
561
577
607
639
704
776
808
856
910
920
870
795
728
629
544
471
378
313
286
263
277
339
395
423
435
456
477
491
541
561
548
522
496
494
507
493
504
508
518
526
516
520
515
528
532
518
508
521
516
519
509
496
491
515
530
524
534
516
509
510
545
547
536
538
553
565
542
515
509
530
547
565
580
589
589
575
578
563
540
529
532
528
548
594
593
570
565
567
579
586
569
549
560
556
563
578
573
570
564
580
612
614
584
567
561
581
598
587
591
596
610
610
586
555
567
567
578
590
591
582
554
531
488
471
491
509
523
540
522
512
498
483
473
471
475
477
485
480
452
424
394
377
409
431
463
468
432
388
367
383
407
416
386
350
382
421
439
438
421
403
406
411
430
420
428
441
451
468
460
446
441
435
423
420
460
487
478
463
455
485
497
462
436
428
452
480
485
475
470
503
510
521
530
526
510
498
494
515
529
548
557
552
520
471
465
487
516
530
535
537
531
530
517
517
520
492
502
536
527
528
538
519
497
491
515
520
517
529
540
542
538
545
539
540
555
549
530
557
563
556
562
576
546
520
533
557
557
546
543
544
530
529
547
568
559
523
490
512
541
554
545
531
540
537
534
556
582
593
562
533
506
503
512
512
519
518
524
545
515
511
544
569
572
571
553
532
517
500
488
520
541
542
541
527
528
540
549
551
535
517
519
524
545
555
570
579
557
530
543
558
565
546
496
499
518
526
523
538
524
502
514
532
549
565
546
540
561
563
560
561
535
517
509
509
534
555
537
543
557
546
522
534
549
560
559
550
543
552
534
518
520
517
533
532
565
571
548
527
510
519
533
529
524
525
529
532
521
551
585
582
572
575
555
525
492
497
515
537
523
500
514
517
502
493
511
512
501
488
482
487
500
518
536
528
504
492
518
552
595
688
796
827
850
886
875
808
720
616
543
481
435
377
319
285
283
289
297
321
341
364
381
418
459
488
497
483
473
460
448
436
480
510
513
516
514
490
472
479
513
528
520
524
529
527
531
534
516
496
489
477
468
488
498
514
519
508
521
526
555
576
572
564
543
551
518
515
516
530
538
533
522
528
552
570
575
560
555
560
566
556
533
508
511
529
549
529
537
551
550
571
583
587
593
570
560
573
594
590
597
592
574
571
574
581
578
573
600
609
600
587
569
560
555
555
534
490
515
576
597
580
529
500
514
538
542
527
501
474
432
415
398
392
412
401
396
413
433
402
398
402
383
366
385
404
403
389
382
363
358
371
393
405
399
375
349
341
347
378
404
407
392
385
402
420
433
452
440
415
395
409
444
458
475
486
472
457
444
434
448
464
467
459
454
432
432
454
478
470
470
480
480
470
472
461
469
450
475
545
564
543
533
533
529
519
499
474
475
480
489
504
506
508
505
503
474
452
475
507
484
472
505
524
505
499
491
494
499
508
515
517
521
519
490
482
518
510
491
470
447
417
427
440
475
497
481
453
450
492
524
532
515
500
479
455
453
490
516
507
507
490
470
446
439
454
479
503
496
473
427
441
460
480
491
462
431
432
468
495
507
501
475
447
432
451
482
502
491
466
458
441
443
458
468
449
432
449
483
488
481
473
476
496
485
444
422
427
466
481
464
467
474
462
465
488
490
476
480
501
493
465
477
462
441
448
473
462
441
451
469
477
490
503
520
524
499
490
481
450
445
483
510
515
503
500
491
472
476
490
509
544
527
491
492
501
503
509
483
467
461
497
538
569
568
545
537
524
503
501
506
495
491
494
516
533
517
523
514
521
538
516
537
551
554
567
559
538
534
533
521
504
478
465
481
482
483
506
514
520
510
496
482
462
447
464
489
478
481
495
528
535
566
596
652
751
841
914
961
968
925
820
738
683
595
536
465
387
356
351
328
302
320
349
414
466
494
512
498
478
460
468
478
470
472
489
480
489
488
487
498
483
479
489
482
499
515
528
500
475
484
521
529
530
532
531
541
542
533
520
529
525
517
535
542
521
497
455
447
476
494
522
546
548
530
538
539
543
538
549
573
572
572
570
550
561
573
550
549
563
562
584
587
596
600
570
536
555
580
601
574
535
601
657
665
636
635
622
592
583
596
635
632
613
624
629
621
589
548
536
548
568
590
599
599
581
535
523
524
533
544
533
502
507
504
480
450
441
430
405
415
456
455
396
369
370
372
364
361
344
336
338
351
356
365
379
368
341
347
378
387
365
350
336
330
350
352
334
340
354
383
410
405
398
392
382
384
377
374
400
390
358
365
390
435
450
431
407
375
375
390
410
430
437
455
438
422
413
420
428
447
462
468
462
464
461
456
444
421
436
477
467
434
428
410
420
449
478
473
467
460
467
474
467
476
477
467
476
481
480
471
447
437
457
472
496
505
472
440
438
458
473
489
489
499
495
480
457
454
480
489
509
504
464
456
469
463
460
445
463
464
477
517
553
554
533
511
495
486
485
490
515
515
500
481
471
482
490
484
478
474
487
467
485
524
547
540
533
513
504
502
502
498
534
561
558
570
571
552
532
516
502
489
474
469
469
499
539
548
549
566
564
574
540
526
544
564
579
588
584
587
569
555
572
587
586
609
615
606
600
582
585
593
602
564
535
549
534
547
579
593
610
605
593
581
557
558
579
583
568
563
551
559
570
574
596
603
596
591
600
605
592
579
562
561
522
502
542
568
557
566
585
579
558
548
565
579
540
527
504
468
484
509
525
565
575
561
530
527
534
530
536
533
522
519
519
506
514
491
481
507
538
572
598
622
619
605
641
694
769
882
967
1017
1023
1017
952
852
744
626
528
455
403
373
342
343
357
404
438
489
510
517
531
546
541
544
558
566
553
538
536
555
548
525
507
517
525
525
525
546
569
562
562
560
573
573
568
561
557
573
562
511
496
504
530
536
527
518
530
558
579
578
542
519
519
545
546
573
569
553
570
578
586
583
577
565
573
588
594
590
574
571
569
547
545
558
540
527
542
563
588
576
589
598
590
590
610
620
628
639
635
618
604
595
601
628
649
632
618
611
598
615
620
632
643
639
609
571
552
558
561
538
556
593
607
588
544
502
503
512
505
481
451
419
409
422
447
443
422
401
387
357
317
339
388
412
399
385
368
377
385
383
397
409
409
401
397
387
376
386
396
403
416
410
408
419
442
477
476
457
418
392
421
439
458
466
484
487
475
456
463
491
497
515
533
527
514
476
464
480
496
484
502
497
477
500
526
542
541
533
522
508
482
469
499
508
501
503
513
531
527
512
509
522
516
488
473
491
506
497
478
499
515
496
473
504
494
485
508
529
545
546
547
547
520
490
504
502
505
517
492
471
485
500
515
546
546
537
509
500
492
476
476
471
469
501
513
525
553
528
494
490
504
496
514
529
548
550
528
558
568
545
533
514
493
468
466
475
474
455
473
525
562
567
546
498
480
477
510
541
542
537
539
526
502
522
549
560
548
528
510
494
489
508
504
500
514
529
543
540
529
520
513
540
544
509
533
573
557
550
551
537
531
530
514
517
522
533
543
555
576
585
576
565
550
509
505
528
554
560
563
524
512
547
580
592
597
559
551
565
559
544
532
560
574
561
528
529
538
530
535
525
542
546
536
526
511
546
579
573
536
532
563
579
572
552
534
526
539
565
558
501
476
477
489
507
508
500
463
451
489
529
557
585
636
713
806
879
915
919
914
900
857
773
671
551
435
364
336
326
331
359
366
365
394
420
452
452
453
470
479
466
465
479
504
515
512
510
479
448
450
482
513
550
546
506
463
445
429
419
423
426
410
419
456
487
507
514
513
500
486
504
509
493
495
488
495
515
513
496
483
482
515
563
593
592
567
561
569
572
581
572
558
561
567
553
531
533
557
583
590
595
597
608
618
621
638
646
627
605
585
575
559
572
601
592
594
607
622
624
634
636
633
625
609
592
600
599
611
618
633
645
637
580
545
549
535
533
517
519
527
540
541
514
494
469
458
456
452
453
448
454
454
439
424
415
401
410
419
408
389
355
321
298
308
305
300
277
269
271
282
278
327
356
362
373
352
336
329
328
328
322
304
301
325
369
400
415
414
390
375
391
403
395
395
420
429
420
419
438
465
473
469
480
484
483
486
475
464
462
457
430
433
463
483
490
504
519
529
534
524
491
500
522
563
565
533
524
527
532
533
522
516
516
490
470
483
511
510
509
494
513
540
541
511
484
461
474
498
508
493
476
467
455
476
527
530
513
504
516
521
509
506
494
482
469
467
478
473
460
463
471
441
405
439
464
495
520
524
517
512
508
521
530
498
486
486
487
477
477
460
458
468
480
480
467
450
467
504
520
491
458
468
479
486
494
499
506
497
500
515
513
481
455
442
468
509
496
488
486
495
505
499
471
467
484
485
475
492
503
519
525
522
518
515
513
490
494
497
472
470
500
507
495
482
491
508
522
513
518
510
485
477
491
490
491
481
499
543
528
484
486
525
562
579
558
521
523
539
540
548
548
539
529
538
539
533
526
517
499
473
494
480
464
508
542
541
507
504
529
527
515
516
516
516
501
484
504
534
504
506
519
519
495
484
468
494
526
540
513
512
541
600
628
700
798
871
923
940
925
860
784
693
595
496
402
339
296
274
276
308
328
361
399
434
457
466
466
449
449
455
478
475
472
465
477
512
515
489
484
495
491
484
487
494
485
484
487
458
469
508
525
534
524
482
464
483
510
527
506
488
512
550
555
521
485
481
488
476
471
471
469
473
452
499
543
575
588
571
540
528
534
516
535
546
558
577
602
606
607
605
592
598
604
635
654
612
576
585
603
618
610
599
596
603
602
565
552
576
611
640
649
637
613
601
590
591
603
605
586
555
560
557
550
570
559
536
514
513
521
510
486
477
473
476
469
448
417
386
363
355
379
397
383
374
373
366
391
421
418
371
360
372
399
391
401
417
397
395
399
393
382
372
381
376
369
380
391
382
382
394
413
420
418
419
428
442
427
439
466
470
449
434
411
406
435
437
451
471
488
490
490
478
478
480
477
490
504
503
499
513
508
511
524
539
521
495
485
468
485
494
494
475
483
499
512
519
517
483
478
484
491
488
477
498
519
520
519
506
487
497
503
520
526
508
502
496
476
484
507
498
486
487
487
490
445
444
481
497
498
494
490
487
503
490
461
447
476
506
518
501
457
427
420
439
447
445
459
469
447
432
427
426
415
434
460
450
448
466
463
439
422
434
446
438
419
394
397
422
454
479
469
465
471
460
399
383
426
464
461
439
449
465
492
529
529
530
519
505
494
481
465
467
474
471
459
451
440
457
469
461
482
487
483
487
480
454
449
462
462
442
465
494
475
475
499
504
504
507
518
527
531
509
487
500
505
524
541
526
504
499
499
513
532
517
489
491
510
522
526
513
492
490
505
521
532
535
542
504
503
515
515
521
515
501
487
508
531
528
521
540
542
512
502
524
531
529
523
506
505
513
512
512
528
518
496
487
467
460
486
534
555
558
584
639
704
771
845
916
936
946
950
896
782
680
601
507
404
326
293
283
271
310
366
389
389
419
450
464
476
481
484
500
523
518
526
525
507
508
510
504
521
538
539
531
557
569
548
536
542
546
549
548
576
567
559
562
555
562
577
557
529
543
581
602
602
603
617
599
572
555
528
513
524
539
576
600
594
575
589
612
619
614
612
639
643
651
645
627
593
584
606
626
608
607
599
609
652
673
654
617
598
607
645
656
662
673
682
668
634
598
593
603
624
621
626
658
658
641
640
644
623
615
599
563
547
549
548
568
577
557
548
562
553
508
494
514
513
502
490
470
471
479
464
450
440
419
388
373
354
364
376
405
452
462
427
379
427
455
465
450
416
404
394
396
412
434
447
428
384
357
417
454
466
460
444
448
462
481
540
575
575
574
580
575
561
562
583
607
600
583
562
552
570
587
578
586
588
572
561
540
560
593
592
578
554
553
547
519
493
534
568
569
566
560
549
538
535
547
570
562
534
508
512
513
544
551
539
522
524
524
541
552
549
544
543
547
542
545
546
533
536
538
522
489
480
490
506
532
523
504
523
505
481
479
483
484
482
497
542
550
541
525
518
513
517
531
542
530
503
471
460
458
449
473
471
443
447
469
483
489
492
511
542
551
529
526
522
503
508
527
529
531
540
558
541
487
500
547
557
546
531
513
488
474
497
504
497
510
534
549
548
517
496
505
513
503
484
478
479
485
502
510
478
477
499
506
501
489
509
509
518
521
521
524
507
508
524
526
518
504
506
513
529
545
547
550
551
550
537
499
507
486
501
525
514
527
549
534
515
516
525
536
536
546
530
513
516
514
526
532
510
500
535
539
524
491
466
471
471
465
477
518
549
520
508
535
554
559
538
503
502
534
574
610
658
728
794
853
906
933
921
843
750
656
558
471
375
308
291
291
300
332
369
406
422
425
430
454
491
499
479
484
515
520
500
480
478
492
530
541
537
536
498
493
488
505
525
546
551
541
536
530
516
542
536
521
540
560
571
558
563
544
524
514
501
492
476
484
499
510
512
512
506
492
492
495
488
483
478
487
527
547
562
566
557
583
598
607
598
582
567
573
580
577
566
561
584
602
605
604
599
611
627
603
610
602
567
543
567
584
617
648
651
628
614
602
597
584
596
596
583
596
605
590
579
564
533
519
519
514
503
504
513
510
480
460
452
450
396
398
427
423
420
415
426
417
409
424
430
429
441
432
404
374
386
399
413
413
393
387
411
425
426
420
401
394
388
406
427
457
466
453
430
393
403
446
472
459
447
458
468
478
477
454
434
453
459
460
470
457
470
506
509
487
475
441
432
430
433
419
400
373
363
383
381
417
445
444
421
420
429
434
426
414
420
402
388
417
453
458
459
448
430
442
452
465
478
474
470
471
456
444
441
441
458
463
478
496
487
483
473
445
418
407
425
443
483
473
446
457
468
491
483
491
482
467
482
489
486
483
484
494
489
478
483
481
480
497
508
514
542
545
526
497
470
494
524
504
481
477
490
529
541
537
532
532
533
525
505
495
499
516
529
532
519
509
484
470
486
504
497
480
493
502
546
577
588
560
534
525
517
516
511
520
524
536
553
543
541
544
553
555
556
542
520
520
512
526
530
537
529
510
504
519
531
517
513
510
528
545
544
523
529
539
543
543
554
562
543
516
503
506
500
512
546
571
554
549
527
494
489
495
514
538
545
537
523
539
549
524
489
499
534
529
525
546
553
525
494
497
521
522
510
505
502
486
464
479
480
493
527
520
502
497
501
548
612
688
772
856
913
942
937
894
823
762
699
620
520
423
352
318
325
333
338
355
366
386
414
453
488
510
529
526
529
510
487
482
495
514
507
494
469
471
502
534
533
541
551
550
544
510
489
495
515
517
485
464
473
525
534
538
552
551
536
531
529
535
539
533
537
534
533
547
555
544
537
537
548
538
549
576
553
540
557
598
618
607
591
559
528
548
557
573
592
590
583
569
575
591
612
619
610
615
642
641
631
615
604
574
559
575
575
569
552
551
583
597
579
563
559
534
517
517
525
537
550
536
498
473
470
470
461
437
455
456
448
425
400
369
341
352
375
402
413
426
407
373
335
310
316
327
329
292
267
279
311
345
356
365
345
348
357
350
356
348
331
321
325
313
307
344
382
398
408
426
413
391
386
386
381
380
377
402
430
430
409
422
437
455
462
456
457
454
439
419
416
454
477
483
488
483
481
483
490
485
492
484
464
480
498
490
485
491
494
504
512
507
491
486
487
494
503
496
510
527
519
490
476
484
467
473
505
522
534
523
511
495
486
494
495
492
482
469
495
519
537
546
523
517
503
502
501
486
458
455
474
504
525
529
552
564
541
527
514
519
524
516
506
492
473
492
529
556
559
534
525
514
512
537
512
502
519
501
500
524
548
539
526
538
554
563
553
528
489
457
494
533
534
508
503
496
496
528
535
521
520
516
515
514
486
470
490
488
485
515
535
546
515
478
489
531
511
479
493
523
526
534
535
514
516
515
513
504
496
501
498
468
481
509
528
543
547
555
551
542
521
531
543
566
563
520
514
522
551
561
557
563
557
569
591
569
549
548
546
536
527
521
514
501
493
484
494
506
482
479
522
558
554
558
572
578
569
536
500
491
516
532
538
545
542
517
507
509
516
496
498
493
492
484
500
521
530
525
531
560
613
679
773
857
922
957
925
924
905
842
744
636
530
431
358
305
288
304
332
364
384
406
422
444
424
427
444
423
416
414
419
450
480
494
488
466
443
433
446
467
471
464
483
483
461
467
475
459
447
452
443
455
440
417
407
407
416
437
462
477
465
458
482
490
462
461
482
497
473
453
463
475
485
504
530
530
517
511
500
513
521
516
525
518
519
514
529
534
512
495
519
568
585
588
581
577
578
564
553
547
553
585
620
643
642
624
608
621
596
573
585
585
573
576
581
574
568
565
546
560
568
573
574
564
553
534
503
482
477
483
501
499
486
461
441
450
447
456
462
439
434
416
388
360
375
410
420
409
385
380
395
