449
497
548
566
546
497
448
429
450
498
549
568
548
501
450
431
452
499
549
568
549
501
452
433
454
502
553
572
553
505
455
435
454
500
550
570
551
503
454
435
453
499
549
569
549
501
451
430
448
493
543
562
543
497
448
429
447
492
543
564
546
498
447
427
445
491
542
564
546
500
450
429
445
491
542
563
544
497
448
429
447
494
545
566
548
502
453
433
452
496
545
566
549
503
453
432
448
492
542
563
546
499
451
431
449
496
548
571
554
508
458
437
455
500
551
573
556
509
459
437
453
496
548
570
554
509
459
435
451
493
543
566
550
505
456
434
451
496
547
569
554
510
459
436
452
496
547
571
555
509
457
435
450
495
546
569
553
508
457
434
449
494
546
570
555
512
462
438
452
495
547
571
555
508
457
433
448
491
542
566
552
508
457
433
447
491
543
567
552
507
456
432
448
492
544
569
556
512
461
435
449
492
544
569
556
512
459
433
447
490
543
571
557
514
463
437
448
491
544
570
557
514
462
435
448
491
545
570
556
512
460
435
448
491
543
571
559
516
464
437
448
491
545
572
558
516
465
438
451
494
547
573
559
516
464
437
450
493
545
570
558
517
466
439
452
495
548
574
562
520
468
441
453
496
549
577
564
521
469
442
452
492
545
573
562
522
470
442
452
493
545
573
561
519
468
440
451
493
546
576
566
524
471
442
452
495
549
577
566
526
474
446
456
494
545
572
562
521
470
441
451
492
545
574
565
525
472
442
451
494
548
578
568
526
472
442
452
493
544
573
563
524
472
443
453
494
548
578
567
526
472
442
451
493
548
579
569
528
475
444
453
493
548
579
570
529
476
446
455
495
548
579
570
530
477
447
455
495
548
579
571
532
478
446
454
494
548
580
572
533
480
448
455
495
548
579
571
531
478
446
452
493
546
578
571
533
480
447
455
494
547
578
571
532
479
447
455
495
549
580
572
532
479
447
455
495
549
581
573
534
480
447
454
494
547
580
573
534
482
451
458
495
548
580
574
534
481
449
455
493
546
579
573
535
482
450
457
495
548
579
573
536
483
450
455
492
544
577
572
534
482
451
457
493
546
579
573
535
483
451
457
494
547
579
573
536
485
452
456
493
546
580
575
538
485
451
455
491
545
579
574
536
484
451
456
494
547
581
577
539
486
452
457
494
546
580
575
538
486
452
457
493
546
580
577
542
490
457
460
495
549
585
582
544
490
455
458
494
547
582
579
543
490
455
457
493
546
580
576
541
487
452
455
492
544
579
574
537
484
449
452
489
543
579
578
543
489
453
454
490
544
581
580
543
489
453
455
491
544
580
578
543
488
450
452
487
540
576
574
542
491
455
456
489
541
576
574
539
487
451
453
488
542
580
579
543
490
454
457
491
545
582
580
544
492
455
455
491
543
580
579
544
490
453
454
489
542
580
580
544
492
455
457
491
543
579
578
542
489
452
452
486
538
575
575
542
489
451
451
486
539
576
576
543
491
454
454
488
541
579
579
545
491
452
452
486
539
578
578
545
493
453
451
484
537
575
576
542
490
452
450
482
534
574
576
542
490
452
451
483
536
575
576
544
491
452
451
485
538
577
579
546
493
452
449
482
535
575
576
544
493
455
451
482
533
573
576
544
492
451
448
481
534
574
576
545
491
450
447
478
531
572
575
543
491
450
447
480
532
573
576
543
490
451
447
480
532
572
576
545
493
452
448
479
530
570
572
540
488
446
443
476
531
572
577
544
490
450
446
478
532
573
577
546
493
453
448
478
529
570
575
543
490
448
443
474
527
570
575
544
492
450
446
476
528
569
574
544
492
450
445
475
528
571
575
544
491
449
444
473
525
568
575
547
496
454
447
476
528
568
573
545
494
452
445
475
527
569
575
545
494
453
446
474
525
568
575
545
494
451
444
473
524
566
573
544
493
451
444
474
525
568
575
545
493
450
443
471
522
565
574
546
495
453
446
475
527
571
577
547
495
453
446
474
523
566
575
547
495
452
445
473
524
569
577
548
496
451
443
471
522
566
575
547
496
453
445
473
524
567
575
546
493
449
443
473
525
567
575
547
498
455
448
476
526
569
577
549
498
453
443
469
520
564
574
546
495
451
444
473
525
568
577
550
498
454
445
472
523
567
577
550
498
454
443
469
520
564
575
548
497
452
442
470
520
564
575
550
500
456
447
473
521
564
574
547
496
451
440
467
519
564
574
548
497
452
441
467
517
562
573
547
497
452
441
468
521
567
578
552
502
457
445
470
521
567
579
553
503
457
445
471
521
567
578
552
502
458
446
471
522
568
578
552
502
457
446
471
520
566
577
551
501
456
445
471
521
567
579
554
503
457
443
468
518
563
575
549
499
454
441
465
515
562
575
550
501
455
442
467
516
563
576
551
501
455
444
469
518
564
576
551
500
452
437
461
511
559
574
550
500
453
439
464
514
561
575
552
502
455
441
465
514
561
575
551
501
454
439
462
512
560
574
551
502
456
442
465
514
561
575
552
504
456
441
465
514
562
576
552
504
457
442
465
514
564
579
555
506
457
442
465
514
562
576
553
504
456
440
462
509
557
572
549
501
454
439
462
510
559
574
551
503
456
441
464
515
563
578
556
508
461
446
467
513
561
578
557
508
458
442
462
508
556
573
551
503
455
438
459
507
557
575
553
504
456
440
461
507
557
576
555
505
455
438
458
505
555
572
551
503
455
438
459
506
554
572
552
505
456
439
460
508
559
577
557
511
462
441
461
508
559
579
560
513
463
443
462
509
561
579
558
510
461
441
460
507
555
574
554
508
459
441
461
508
557
576
557
508
460
443
465
512
561
580
560
514
465
447
467
513
563
583
562
515
466
447
467
513
563
582
563
515
465
445
464
511
561
580
560
514
464
444
463
509
560
578
559
512
462
441
460
506
557
579
562
516
465
444
462
507
557
577
560
514
463
444
463
507
556
575
556
511
462
440
458
504
555
575
556
509
459
438
457
502
554
576
557
510
460
438
455
499
549
571
555
509
459
438
455
501
553
575
560
515
465
443
460
506
556
577
559
514
462
441
458
502
554
576
560
514
463
441
458
506
559
581
563
516
464
441
457
500
551
574
557
511
461
439
457
500
551
575
559
514
462
438
452
496
548
571
555
511
460
438
454
499
551
575
559
514
462
439
454
496
548
571
556
512
462
438
454
498
550
573
558
513
462
437
451
494
547
571
556
511
459
436
451
495
547
571
557
514
463
439
452
496
549
573
559
516
464
438
453
497
551
574
559
515
464
439
451
495
548
574
560
516
464
439
454
496
548
574
560
517
465
440
454
498
550
576
560
515
464
440
454
498
551
575
562
519
466
440
455
498
550
574
560
518
466
440
452
493
545
572
559
516
464
438
451
494
546
572
560
518
466
439
453
496
548
573
559
516
462
436
449
492
544
571
558
516
463
437
450
493
546
573
559
516
463
435
448
490
543
570
558
516
464
438
450
492
544
571
558
515
463
436
448
489
540
567
556
514
461
433
446
488
540
567
555
512
460
432
444
486
538
566
555
513
461
432
441
482
534
562
552
511
458
430
442
484
538
566
556
514
461
432
442
481
533
561
551
511
459
432
445
486
539
568
557
514
461
432
443
483
537
567
556
515
463
434
444
484
536
564
554
513
461
431
441
482
536
565
554
513
460
431
442
482
534
563
554
514
462
434
444
484
538
567
558
516
462
431
440
480
533
562
552
512
460
431
440
481
534
564
554
515
463
434
444
483
535
565
556
516
464
435
445
484
537
566
555
514
460
429
438
477
531
562
554
514
461
432
440
480
534
566
558
519
467
438
445
484
537
568
559
519
465
435
443
484
538
568
559
518
465
434
442
480
534
566
559
518
466
435
442
480
534
567
561
522
468
436
444
482
535
566
558
520
467
435
441
479
533
566
559
522
469
437
443
481
535
567
561
522
468
435
441
480
534
568
562
523
469
437
443
480
532
564
557
517
464
432
438
476
528
561
556
519
465
433
439
476
528
560
555
518
465
431
436
474
529
561
555
517
464
431
436
474
528
560
556
519
465
430
433
471
526
560
554
515
462
430
435
473
527
561
556
518
464
429
434
470
524
558
555
517
463
429
433
471
525
560
557
520
467
433
437
474
527
562
560
523
468
433
436
473
527
562
559
522
469
435
439
475
529
564
561
524
471
437
441
477
530
565
562
526
474
438
441
477
530
567
565
530
476
440
440
475
528
564
562
526
473
439
441
476
530
565
561
525
472
436
440
476
530
566
564
529
476
440
442
478
531
566
562
526
473
437
440
475
527
564
562
528
474
438
439
475
529
565
563
527
474
438
440
475
528
564
564
530
478
442
443
478
530
566
565
531
478
440
440
474
526
562
561
527
474
437
438
472
526
563
564
531
479
441
441
475
527
565
565
530
477
439
438
472
525
562
561
527
475
438
438
472
526
564
563
529
476
439
439
474
528
566
567
534
480
443
443
476
528
567
569
536
482
443
441
474
526
563
563
530
476
437
438
473
527
564
563
529
478
441
440
472
524
563
564
530
477
439
438
470
523
561
561
527
472
433
431
465
519
558
560
528
475
436
434
467
519
558
559
527
474
436
435
467
519
558
558
526
473
432
430
463
516
555
557
524
471
432
430
462
515
554
556
522
468
430
429
461
513
554
556
524
472
432
429
461
513
553
556
524
472
432
429
461
515
556
560
528
476
436
433
465
517
558
561
528
474
434
430
462
515
556
559
528
477
438
434
465
517
557
560
529
475
435
431
461
514
556
559
529
477
437
433
463
515
557
562
533
480
439
434
464
516
558
561
530
480
440
436
466
518
559
565
535
482
441
435
465
516
558
563
533
481
441
436
466
518
559
566
535
482
440
434
463
515
557
561
531
480
441
438
469
520
562
569
540
488
447
442
471
522
562
567
537
486
445
438
468
521
563
569
540
488
447
443
472
524
565
570
539
487
447
441
471
523
567
572
542
490
448
442
472
523
566
572
543
492
448
441
471
524
567
573
541
490
449
443
472
524
566
571
540
488
446
438
467
519
563
571
542
490
449
443
470
521
565
571
541
489
446
439
467
520
563
570
542
490
445
437
465
518
562
570
543
493
451
443
471
522
564
572
544
492
448
440
468
521
566
574
546
495
453
444
470
518
561
569
542
490
447
438
464
515
558
566
538
488
445
437
465
516
560
567
538
487
443
434
463
515
561
571
545
495
451
441
467
518
561
571
545
495
451
441
467
518
561
571
544
494
451
443
470
520
563
572
546
496
452
443
471
523
569
579
550
498
454
443
468
519
564
575
549
496
451
442
469
518
563
573
548
498
454
443
467
517
562
572
546
495
451
440
466
516
561
572
546
495
450
439
466
517
563
573
548
497
453
443
469
518
563
576
551
500
453
440
467
518
564
576
550
498
452
440
465
514
560
573
550
500
456
444
470
521
567
579
553
501
455
443
468
518
565
578
552
501
455
443
466
516
562
574
550
501
456
444
470
521
568
580
555
504
457
442
465
516
563
577
553
503
457
443
467
517
564
578
553
502
456
443
466
516
563
577
553
503
457
444
467
518
564
578
555
505
460
446
471
521
567
581
557
507
459
443
466
516
562
576
553
503
456
442
464
513
559
573
549
499
454
442
466
514
560
574
550
502
455
440
462
513
561
575
550
500
454
441
465
514
562
576
553
503
456
441
464
514
562
578
554
504
456
441
464
514
561
575
552
502
454
441
465
514
562
576
554
506
460
445
468
516
563
578
556
506
459
443
466
513
560
577
555
506
458
441
461
509
559
577
557
510
463
447
469
518
567
582
560
510
463
446
465
511
560
577
555
505
457
442
465
514
563
580
558
509
462
446
467
515
563
580
558
510
463
446
467
515
565
583
561
513
465
448
467
514
562
578
557
510
462
444
464
510
559
576
555
507
462
446
468
517
567
584
563
513
464
446
467
515
565
583
562
514
464
445
466
514
563
581
560
513
464
447
468
517
566
584
564
516
466
448
468
515
564
582
562
515
466
449
468
515
566
584
563
515
467
449
468
516
566
584
564
516
467
446
466
513
562
582
562
517
468
450
469
516
564
583
564
518
468
448
467
513
563
583
564
517
467
448
468
515
565
584
566
520
471
452
472
518
568
589
572
525
474
454
472
518
567
588
569
523
475
455
471
518
569
589
568
520
469
449
468
514
564
584
565
518
468
447
465
510
563
584
565
518
467
447
465
511
562
584
567
521
471
452
470
515
566
586
568
523
474
453
471
516
566
587
568
522
470
446
463
508
559
581
566
520
469
448
465
511
562
584
566
521
471
448
465
511
563
584
566
522
472
451
468
513
563
584
568
524
473
451
467
513
563
585
567
521
469
446
464
510
562
584
568
523
472
449
465
510
562
586
570
525
474
451
467
512
563
587
572
527
475
451
466
511
564
587
570
525
473
451
467
512
563
587
571
526
475
452
467
511
561
583
568
525
475
452
467
512
564
586
570
525
474
451
466
510
561
584
568
524
474
452
468
513
564
588
571
526
474
450
464
507
559
584
570
528
477
452
466
509
562
587
573
530
478
453
467
510
561
585
571
528
476
451
465
508
558
583
569
526
475
451
464
506
557
582
568
525
475
450
466
510
562
586
573
528
475
448
462
505
558
584
570
528
478
452
466
510
563
589
576
532
481
455
468
511
564
589
576
532
481
457
469
513
563
588
575
532
479
453
466
509
560
585
572
529
478
451
464
508
560
587
574
531
480
454
467
509
560
587
574
531
477
450
461
504
556
582
569
527
475
449
461
500
552
580
570
528
476
450
463
504
556
583
571
530
479
453
467
510
562
589
575
532
479
452
463
505
558
586
575
533
480
453
464
506
558
585
572
530
478
450
462
503
556
584
571
529
476
448
459
500
553
582
570
529
477
450
462
503
556
584
573
531
480
453
463
503
555
583
573
531
478
450
460
500
552
581
571
529
477
449
460
501
553
581
570
527
474
444
455
497
550
581
572
532
480
451
461
501
554
584
575
533
481
452
462
502
555
585
574
531
477
448
458
499
551
579
569
529
477
449
458
499
552
581
570
530
477
447
457
496
549
579
570
529
476
447
457
498
551
580
571
530
477
447
457
496
548
577
568
528
475
446
456
497
551
581
571
530
476
446
455
496
551
581
571
530
477
447
457
498
551
582
573
533
481
451
459
497
551
581
572
532
478
448
456
495
550
580
571
531
478
447
456
496
550
582
574
534
482
451
459
497
551
583
576
536
482
451
459
497
550
580
572
533
481
450
459
498
552
583
576
537
483
450
456
494
546
577
570
530
476
445
453
493
545
578
572
532
478
445
452
491
544
577
571
533
481
449
456
496
550
582
575
535
481
449
457
497
550
581
573
535
483
452
458
497
550
583
577
540
487
455
461
498
552
586
580
541
487
454
460
497
551
585
579
542
488
455
462
501
554
586
579
540
486
452
458
495
548
580
575
538
486
453
459
495
548
582
577
540
487
453
457
493
546
579
575
538
485
452
457
494
546
578
573
534
479
446
451
