481
495
526
557
569
557
527
494
483
496
528
560
572
560
531
499
487
499
529
559
570
556
527
497
487
501
531
560
570
558
529
497
486
497
527
559
571
558
528
495
483
497
528
559
571
558
529
497
485
497
527
559
572
559
529
498
487
499
529
561
573
561
531
499
485
497
528
559
571
558
527
495
484
497
529
562
573
561
531
500
490
502
532
563
576
563
533
502
490
502
531
562
574
562
533
503
493
505
536
567
578
565
535
503
492
505
536
569
580
568
538
506
495
508
538
569
581
569
538
505
492
504
535
568
579
566
537
506
495
508
538
569
579
568
539
508
495
508
538
570
582
569
538
505
493
506
536
568
580
567
536
504
493
507
538
569
581
570
542
509
496
507
537
569
580
568
538
506
494
507
537
569
582
570
541
508
497
510
541
572
584
573
543
512
500
513
543
572
583
570
541
509
498
511
540
569
580
568
539
507
495
508
539
572
584
569
538
504
493
505
535
567
578
565
533
501
489
502
533
565
576
563
534
501
488
499
529
561
573
561
531
500
488
501
532
564
576
563
533
501
490
502
533
565
576
560
529
497
485
496
526
558
570
558
529
497
487
500
531
562
573
559
530
499
488
499
528
559
571
557
527
496
485
497
526
557
567
556
527
496
484
495
527
559
570
557
526
495
484
497
527
558
570
558
528
496
485
498
529
561
571
556
525
493
480
491
521
550
561
550
521
489
477
489
518
548
558
544
513
484
475
488
518
547
557
544
514
483
473
484
513
544
556
543
513
482
470
482
509
539
550
536
506
475
463
474
501
531
541
529
498
466
454
465
493
525
535
521
492
462
451
463
492
521
532
519
489
456
445
457
485
513
524
510
480
449
438
450
480
509
519
505
475
444
432
444
472
502
514
502
474
441
427
437
466
496
507
495
466
434
422
433
462
493
503
490
460
429
418
429
457
488
499
487
458
427
415
425
452
482
493
481
451
420
408
421
449
479
489
475
444
412
400
411
439
469
481
468
439
408
397
409
437
467
479
467
439
407
395
406
433
463
474
461
432
400
388
399
428
458
469
457
430
400
387
397
424
453
463
450
420
388
375
386
414
444
457
446
417
387
374
384
411
442
455
443
416
385
373
385
412
441
452
441
411
380
368
380
408
437
448
434
405
375
364
377
405
434
445
434
406
376
364
375
404
434
445
432
404
375
364
377
405
433
443
432
406
377
365
375
402
433
445
433
404
374
363
373
402
432
442
431
403
373
363
375
404
434
445
433
405
374
363
373
401
433
446
434
406
376
365
379
408
438
449
438
409
379
368
380
408
438
450
437
408
378
367
378
405
436
447
435
406
375
362
373
399
428
439
428
400
371
360
371
399
429
442
431
402
372
359
370
398
427
437
425
397
369
358
370
398
428
439
427
399
369
357
368
397
427
440
428
401
372
362
374
404
434
445
432
404
375
363
375
404
434
446
435
407
377
367
379
408
439
452
439
411
381
370
382
411
441
451
439
411
381
368
379
409
440
451
440
414
385
374
387
416
447
458
445
415
383
369
381
409
438
448
436
409
380
368
380
408
439
450
438
411
381
371
384
411
441
452
439
411
381
368
378
406
437
450
438
408
377
365
377
405
435
445
433
405
374
362
373
402
433
445
433
406
376
365
377
404
433
444
432
403
374
362
375
404
434
444
433
405
374
363
375
404
433
445
434
406
376
365
377
405
435
448
436
408
379
368
379
409
439
450
437
409
380
368
379
407
437
448
437
410
382
372
384
413
444
456
445
418
388
377
389
418
448
460
450
423
393
381
393
423
454
466
454
427
397
386
398
427
457
469
459
432
403
392
404
433
463
474
461
432
401
390
401
429
460
471
460
432
402
391
403
431
461
472
459
432
404
393
405
434
465
477
465
437
409
398
409
436
466
477
465
438
408
397
410
441
472
484
471
443
413
402
416
445
476
487
477
449
419
407
418
447
477
489
479
451
421
409
422
452
482
494
483
456
427
416
428
457
487
498
487
460
431
421
433
462
492
502
489
462
434
424
436
464
494
505
494
466
437
426
438
467
497
510
499
472
442
431
443
470
501
514
503
475
444
431
443
472
503
516
504
476
448
437
450
479
510
522
510
483
453
442
454
481
510
522
510
484
455
445
457
486
517
530
519
490
459
446
457
485
517
529
517
489
460
449
462
492
525
536
524
495
465
454
464
491
522
534
522
493
463
451
463
492
523
535
523
494
464
453
465
493
521
531
518
488
458
445
456
484
515
527
517
489
459
448
459
486
516
526
513
483
453
441
452
482
512
524
511
484
453
441
452
480
509
520
507
478
448
436
448
477
506
518
506
479
451
441
453
480
510
524
513
484
453
441
452
482
513
524
511
482
453
444
457
488
518
528
516
489
459
447
458
487
519
531
520
491
462
451
464
493
524
537
526
497
467
456
467
496
528
539
527
498
469
458
472
501
532
543
532
504
475
464
475
503
534
546
536
507
477
466
479
508
539
550
539
511
481
469
480
509
541
554
544
516
486
475
485
512
542
554
543
514
484
472
483
511
542
553
541
512
483
472
484
514
546
557
545
517
488
477
490
520
550
561
550
522
493
483
494
523
553
563
551
524
494
483
495
524
554
566
555
527
497
486
498
527
558
570
559
530
498
485
497
528
560
572
560
531
500
489
500
529
562
575
564
535
504
492
504
532
562
574
562
534
503
492
504
533
564
576
565
536
505
494
506
536
567
579
568
541
511
499
510
538
570
582
571
542
511
499
511
540
571
583
571
543
514
502
514
542
572
583
572
546
517
506
519
548
576
586
574
545
515
504
515
544
576
586
573
545
515
504
518
548
579
590
577
549
519
508
520
549
579
589
576
547
517
507
522
552
583
593
580
553
523
511
524
554
584
595
584
556
526
514
526
554
584
594
582
552
521
509
521
548
580
592
581
552
522
511
522
549
577
587
576
548
517
504
517
546
577
589
576
546
514
502
514
542
573
586
576
549
518
505
516
544
573
583
571
544
514
503
515
544
574
585
574
547
517
504
516
544
574
586
576
549
517
505
517
546
577
587
576
548
519
508
521
550
579
591
580
551
521
509
521
550
580
592
581
552
521
509
522
550
581
593
582
552
521
509
521
549
581
593
581
551
521
508
520
547
577
589
578
551
521
507
519
547
577
589
577
550
520
508
519
547
576
587
576
547
516
503
514
542
571
583
570
541
510
499
510
540
569
581
568
540
510
497
508
536
568
582
571
543
513
500
510
539
570
581
569
541
510
500
512
541
571
584
572
544
513
500
511
540
571
584
573
546
518
508
521
549
579
591
580
551
521
509
520
548
579
592
582
554
523
509
521
551
582
594
583
556
526
513
525
553
582
593
582
556
527
516
529
557
586
597
586
560
531
519
531
558
588
599
587
560
531
519
532
560
591
602
590
563
532
521
532
559
589
600
588
560
530
519
530
558
587
597
585
558
528
516
528
556
587
597
586
558
528
514
526
554
584
596
584
555
524
511
522
550
580
590
577
549
519
507
519
547
577
589
578
549
520
508
519
548
579
590
579
551
523
512
525
555
586
600
590
564
533
522
534
561
592
605
593
566
534
522
533
560
589
600
589
561
532
521
532
560
590
603
591
564
534
523
533
560
590
604
593
565
535
523
534
562
593
605
593
565
535
522
532
559
590
602
591
562
531
517
526
554
584
597
587
559
528
515
527
554
584
596
584
557
527
516
527
556
586
596
583
554
523
510
523
551
582
594
582
554
522
509
519
547
577
590
581
552
520
508
520
548
578
590
577
549
517
503
515
542
573
585
574
546
515
502
513
541
571
584
573
545
513
501
511
538
568
580
568
541
512
500
511
539
569
581
571
543
512
499
509
538
569
582
572
545
514
501
511
538
569
582
570
543
510
498
510
539
568
580
569
541
510
497
507
534
564
574
562
534
504
494
504
533
563
574
562
533
503
492
503
531
561
571
560
532
500
487
496
523
553
564
553
526
496
484
495
523
553
565
554
524
491
479
489
517
546
557
544
515
484
473
484
513
543
555
543
514
484
473
485
514
544
555
543
516
487
476
487
515
544
555
543
515
485
474
485
512
541
553
542
514
482
472
482
509
540
552
541
513
483
471
482
510
541
553
541
512
482
471
482
509
539
550
538
509
479
467
478
507
538
550
539
510
480
465
474
501
532
545
533
506
476
463
473
499
530
541
530
503
473
460
471
499
531
545
535
506
474
460
470
497
526
537
526
497
468
456
468
496
525
538
528
500
469
458
468
495
527
539
528
500
470
457
467
494
526
541
532
503
473
460
470
498
527
539
528
500
471
459
470
497
528
540
528
499
469
458
471
499
529
542
530
501
471
459
472
500
530
542
531
502
473
462
475
501
532
545
533
505
475
461
470
496
527
539
529
501
470
457
467
494
525
538
527
499
469
457
469
496
526
538
527
500
469
457
467
494
525
537
526
497
466
454
465
494
525
538
529
502
471
458
468
495
526
540
529
501
470
456
466
495
527
540
529
500
469
455
464
491
523
537
527
501
471
458
469
496
526
538
527
499
470
458
468
495
527
540
527
498
469
457
467
494
525
537
527
498
467
454
464
492
523
537
526
496
463
449
460
488
519
531
519
491
460
448
460
487
516
528
517
488
458
447
458
484
