543
501
456
437
452
492
537
555
540
499
454
434
448
489
535
556
542
500
454
432
447
487
535
558
544
504
460
439
452
493
540
560
546
507
463
442
454
493
538
558
544
504
459
437
450
489
536
557
543
504
459
437
450
488
535
556
542
503
458
437
451
488
534
555
542
502
457
435
447
486
532
553
540
502
456
434
446
485
531
553
540
501
455
433
445
483
530
552
540
501
455
434
446
484
529
550
536
498
453
432
443
480
525
546
533
493
448
425
436
473
519
540
526
487
441
418
430
465
509
532
520
481
434
411
422
459
504
527
516
479
434
410
420
456
501
526
515
479
434
411
423
460
506
531
522
486
442
419
430
467
513
539
529
492
447
423
433
470
517
543
535
499
452
427
436
473
519
544
535
498
452
429
439
477
524
550
541
504
459
434
444
480
526
551
542
505
459
434
444
481
528
553
544
507
462
437
447
483
529
556
547
510
464
438
447
484
530
556
547
510
464
440
448
484
532
559
549
512
466
441
450
485
532
557
548
512
466
441
449
484
531
558
549
514
468
442
450
484
530
557
551
518
471
444
453
489
535
562
556
522
477
451
458
493
540
567
560
525
478
450
458
493
541
570
562
528
481
454
460
496
543
572
565
531
483
455
460
494
542
570
564
530
483
455
460
493
541
570
563
529
481
452
458
493
542
571
565
529
483
456
463
496
543
570
564
532
486
458
464
497
545
575
569
535
489
461
465
497
545
577
575
541
493
462
466
499
545
575
570
538
490
460
464
496
543
574
569
536
490
460
465
498
547
579
575
544
497
467
471
502
549
580
576
544
496
464
468
500
548
579
575
542
495
465
469
501
550
581
578
546
499
470
473
506
553
583
579
546
497
464
468
501
548
579
577
545
497
466
469
500
548
580
576
542
494
463
465
497
543
575
573
542
495
463
464
495
543
576
574
542
496
464
466
499
547
578
577
547
500
468
469
500
546
577
575
544
496
463
466
499
548
580
578
547
500
468
470
500
547
580
577
547
499
466
467
498
545
577
575
545
499
467
468
497
544
577
576
545
497
465
466
496
543
578
576
545
498
466
467
496
541
575
575
546
499
466
465
494
540
574
574
544
497
464
464
492
540
575
575
547
500
466
466
496
544
578
578
548
501
467
466
495
541
575
575
545
498
465
464
493
539
573
574
545
497
462
461
490
536
569
570
541
494
460
459
487
532
566
567
539
494
460
458
487
534
569
571
543
499
465
462
490
536
571
574
546
499
463
459
487
532
568
573
546
500
466
463
491
538
574
575
546
499
464
459
486
532
568
572
546
500
465
462
489
536
571
573
545
498
461
455
483
529
566
570
543
496
461
457
484
530
565
567
540
493
456
450
477
525
564
568
542
498
464
458
484
529
565
570
543
497
460
455
481
528
564
569
542
496
460
455
482
528
567
572
546
499
462
457
482
525
561
567
543
498
461
455
481
527
564
569
543
496
458
454
481
526
565
570
544
499
462
456
480
526
564
569
544
499
462
456
481
527
566
572
546
500
462
455
481
527
565
572
548
504
467
461
485
531
568
574
548
502
464
458
483
528
567
575
549
503
464
457
482
527
567
574
549
503
464
456
479
524
563
571
547
502
464
456
479
523
562
570
547
502
465
457
480
524
563
572
548
503
465
455
479
524
564
574
549
504
464
455
479
523
561
570
546
502
464
457
481
525
563
572
550
506
466
457
480
525
564
573
549
505
466
457
480
524
565
574
548
503
465
456
479
523
563
571
548
503
461
451
472
514
554
566
544
500
460
450
472
516
558
570
548
503
462
451
473
518
559
570
548
505
464
453
475
519
559
570
548
505
464
451
473
517
560
571
548
504
463
452
475
517
558
570
547
504
463
451
473
517
558
569
547
503
463
452
473
516
557
569
548
504
465
454
476
519
560
573
552
508
466
454
475
517
559
572
552
510
471
459
478
519
560
573
554
511
469
455
474
517
560
573
553
509
468
454
472
516
559
572
552
509
466
454
475
518
560
574
553
510
468
455
474
517
560
573
552
512
471
457
478
520
562
576
557
514
469
454
473
516
559
574
555
513
470
456
475
519
562
577
558
517
474
459
478
520
563
578
560
518
473
457
475
518
561
575
556
513
469
455
473
515
559
575
556
514
471
455
472
513
557
574
556
513
469
455
475
517
560
576
558
515
470
453
472
514
557
573
556
515
472
456
473
514
559
575
557
514
470
454
471
513
557
574
557
517
475
459
476
517
560
576
557
515
471
453
470
510
555
572
554
512
468
452
470
512
557
575
559
519
474
456
472
512
556
574
559
519
475
457
472
512
554
572
555
515
470
453
469
509
554
571
556
515
471
454
470
510
554
572
554
514
470
452
467
507
552
571
557
517
472
452
467
507
553
572
557
516
472
453
470
511
558
578
562
522
478
458
472
512
557
576
560
521
477
457
472
510
555
574
560
520
475
455
470
511
557
578
563
522
476
455
468
507
552
572
556
516
471
452
466
505
551
572
558
519
474
453
467
506
552
573
559
519
474
453
466
505
553
575
561
521
474
452
465
504
551
572
559
521
477
457
472
510
554
575
562
523
478
457
471
508
554
575
561
523
477
455
467
505
552
574
561
523
476
453
466
504
551
574
561
522
477
454
467
505
551
574
562
525
479
456
468
506
552
575
564
527
480
457
469
507
554
577
566
527
479
457
468
505
552
575
564
526
481
458
469
506
552
576
563
524
477
454
467
504
550
573
561
524
478
455
466
502
547
570
559
522
477
454
465
503
549
573
563
527
481
457
468
503
549
572
561
525
478
453
464
500
547
571
561
526
480
456
465
501
548
574
563
527
479
454
464
500
547
571
560
524
478
454
463
498
545
570
561
526
479
454
464
502
550
575
566
529
481
455
464
499
545
570
560
525
479
454
464
499
546
572
565
529
482
456
463
498
546
572
564
528
482
455
463
498
546
572
564
528
482
454
463
498
545
572
564
530
484
457
465
498
544
572
565
530
483
457
464
498
545
572
564
528
480
453
460
494
541
569
560
525
479
451
459
494
542
569
563
529
483
455
461
494
540
567
560
526
479
451
457
491
537
565
559
527
481
453
460
495
545
573
565
530
483
454
460
493
541
569
562
527
479
449
454
488
535
563
557
525
479
450
455
489
539
570
565
531
482
453
459
492
540
570
565
531
484
454
459
492
537
566
561
528
481
451
456
488
535
565
559
526
480
451
456
490
539
569
564
530
483
453
458
490
536
565
561
529
483
454
458
490
536
568
565
532
484
453
456
486
533
563
559
526
478
448
452
486
534
566
562
529
481
450
453
486
535
567
563
532
485
455
458
490
537
567
563
533
487
456
458
491
537
567
564
533
486
455
457
489
537
569
567
536
490
459
461
492
539
569
566
535
488
457
460
492
540
572
570
539
492
458
458
489
537
570
569
539
492
461
462
492
539
572
571
541
494
462
462
491
536
567
566
537
489
457
458
489
535
567
566
536
490
457
457
488
535
567
567
537
492
460
461
490
538
573
572
542
495
460
459
489
535
568
568
538
490
456
457
487
535
569
570
540
493
459
458
487
535
569
569
539
491
457
456
484
530
565
565
535
488
456
455
485
532
566
567
537
489
454
453
484
530
564
565
537
490
454
453
483
530
564
564
535
490
456
455
484
531
565
567
539
492
456
453
481
528
564
566
537
490
455
454
482
528
563
565
537
491
456
454
482
528
563
566
537
490
455
452
480
526
561
564
536
490
456
454
481
526
561
564
537
492
457
453
480
527
563
566
538
491
456
454
481
526
562
565
536
490
455
451
478
526
564
568
540
495
460
455
481
527
563
567
542
496
459
454
480
527
564
568
541
495
459
455
482
529
565
570
544
496
459
456
483
529
565
570
542
495
459
454
482
528
565
570
543
497
460
455
480
525
562
567
541
494
458
454
479
524
560
566
539
492
455
449
475
520
557
564
539
494
456
450
476
522
560
567
541
494
457
451
476
521
560
567
542
496
459
452
478
523
561
566
539
494
458
452
478
523
561
567
542
497
460
453
477
521
560
567
543
497
459
451
474
519
558
567
543
498
460
452
476
520
560
568
544
499
461
451
474
518
557
566
543
498
460
452
476
520
559
567
542
498
460
451
476
522
561
571
548
502
462
452
474
519
560
569
545
500
461
452
475
518
557
567
545
500
461
453
476
520
559
568
546
501
463
454
479
523
562
569
545
500
462
451
473
518
557
567
544
501
462
452
474
518
559
569
547
504
466
457
479
521
560
570
548
503
463
452
474
517
557
568
546
500
460
451
475
520
560
571
548
503
461
448
470
514
555
566
544
500
460
449
471
514
555
567
547
505
465
453
475
519
559
570
550
505
464
452
473
516
557
567
546
503
462
450
470
513
555
567
546
504
463
451
473
516
558
571
550
507
466
454
475
517
558
571
550
505
462
448
467
511
554
568
549
505
463
449
469
511
554
567
547
503
462
448
467
509
552
567
548
505
464
451
471
514
556
570
548
505
463
448
467
510
554
567
550
508
466
453
471
513
554
567
549
507
464
449
467
510
553
568
548
506
465
451
469
510
553
567
548
507
466
451
470
512
555
570
552
510
466
451
470
513
556
572
554
512
469
454
472
513
556
571
552
510
468
451
468
509
553
569
551
509
466
449
467
508
552
567
548
506
463
447
464
504
549
566
549
508
465
447
466
509
553
569
551
508
464
448
466
507
550
566
548
507
464
447
462
502
547
565
549
506
463
446
463
505
550
567
551
511
467
448
464
503
547
566
550
508
464
447
464
505
550
567
552
512
467
448
463
503
548
565
549
508
464
446
462
503
549
568
551
510
467
448
463
503
547
567
552
510
465
446
462
502
548
566
551
513
470
450
464
503
549
568
552
511
466
446
462
501
546
565
551
512
469
449
462
502
547
567
554
513
467
448
461
499
543
563
548
509
465
445
458
496
542
564
551
512
466
445
458
496
543
564
550
510
466
445
459
499
546
567
553
512
467
445
459
499
547
569
555
515
471
450
465
504
550
571
556
517
471
449
462
500
545
566
552
514
468
446
459
499
546
568
553
514
468
448
462
501
547
569
556
517
472
449
461
498
544
568
557
520
474
451
463
501
548
570
558
519
473
451
463
501
547
571
559
521
476
451
461
497
543
566
555
517
471
448
458
495
542
567
556
519
474
452
462
499
545
568
556
518
472
449
461
498
544
569
560
523
476
452
461
497
543
568
557
520
473
448
457
495
541
566
556
518
471
447
457
494
541
565
554
516
470
446
456
492
538
563
554
517
472
447
457
493
539
562
552
517
472
447
456
491
538
564
555
520
474
448
457
492
539
566
558
523
477
450
459
496
543
569
560
524
476
449
458
494
540
565
556
520
473
446
454
490
536
564
557
522
474
447
456
491
539
565
557
522
474
447
455
492
538
564
557
523
475
447
455
491
538
564
557
522
476
450
459
494
541
568
559
523
476
449
456
491
536
562
556
521
475
448
456
492
540
568
560
525
477
450
457
492
539
567
559
525
477
449
455
489
536
563
557
524
478
449
455
489
537
566
561
528
481
453
459
493
540
568
562
528
479
450
455
489
537
565
559
525
477
449
456
490
536
564
559
525
478
450
456
489
535
563
558
524
477
449
455
488
535
565
559
526
479
451
457
490
537
567
562
529
482
453
458
492
539
569
564
530
483
453
457
489
537
568
563
531
484
455
459
492
540
570
566
533
485
454
457
488
534
563
559
527
482
452
456
488
535
566
563
531
483
453
457
490
536
567
562
528
481
451
455
489
536
567
564
530
482
451
454
486
532
564
562
532
485
455
459
491
537
568
564
532
484
452
454
487
534
566
564
532
485
454
456
485
530
562
561
531
484
452
454
486
533
565
563
532
486
455
457
487
534
566
565
533
487
454
454
485
532
564
563
533
485
453
454
484
531
563
562
531
485
451
451
482
530
564
565
534
487
453
455
487
534
565
564
534
485
452
452
482
529
563
564
533
486
452
450
480
526
560
559
527
480
448
448
478
525
559
559
530
484
451
450
479
525
558
559
531
486
452
452
482
529
564
564
534
487
454
453
483
530
564
564
534
487
453
453
483
529
563
563
535
489
455
453
482
528
563
566
539
492
458
456
484
529
563
565
537
491
455
452
480
527
562
564
535
490
457
455
483
530
565
568
539
493
458
456
484
529
564
564
534
488
454
453
482
529
564
566
539
493
456
454
481
527
562
565
537
490
454
451
478
524
558
561
534
488
453
450
476
520
556
561
533
487
452
448
476
520
556
560
532
488
453
450
477
523
559
562
535
488
451
448
476
521
558
563
536
490
454
450
478
524
562
567
541
494
457
453
481
528
565
569
542
495
457
451
478
524
562
566
540
495
459
455
481
526
563
568
543
498
462
456
482
527
565
570
544
498
461
454
479
524
563
569
543
496
459
452
477
522
561
566
541
495
459
453
479
524
561
567
541
495
456
450
474
521
560
566
541
495
456
450
475
521
559
565
540
495
457
450
477
522
560
566
542
499
461
453
479
525
562
569
542
496
458
452
478
522
560
567
542
497
460
454
480
525
562
569
545
501
462
453
478
523
563
571
547
501
463
455
477
520
559
568
545
500
460
452
476
520
559
568
545
500
461
452
476
520
559
565
541
496
457
450
474
520
559
568
543
498
458
449
472
517
557
565
542
496
457
448
471
516
555
564
541
498
459
450
473
517
556
565
542
498
461
453
477
522
561
571
547
502
461
449
472
517
557
568
545
499
459
448
471
516
557
566
542
498
458
448
471
516
556
565
542
498
457
446
470
515
556
566
542
499
460
449
471
514
554
564
543
500
461
450
473
516
556
567
546
502
460
449
471
514
555
566
544
500
460
448
469
511
552
563
541
498
459
448
471
516
559
570
549
505
464
451
470
513
554
566
544
501
460
447
468
511
553
565
544
500
459
447
469
512
554
566
544
501
461
449
470
513
555
565
542
499
459
445
466
509
553
565
544
502
461
448
469
511
552
564
544
501
460
447
467
509
552
565
545
503
460
446
466
509
552
564
544
502
460
445
464
506
549
563
543
500
457
443
465
509
551
565
545
501
458
443
463
505
549
563
543
501
460
447
466
508
551
564
545
503
461
446
465
508
554
569
550
507
464
450
471
513
554
568
548
505
461
445
463
505
548
563
544
502
461
446
464
506
550
566
548
506
465
451
470
512
556
571
552
509
465
451
470
511
554
570
552
510
467
451
469
511
555
571
552
510
466
449
467
509
552
567
549
507
464
447
464
506
551
568
551
510
465
448
466
508
553
570
552
510
467
450
466
507
551
567
550
508
464
447
464
505
549
566
548
506
462
444
461
503
548
566
551
509
465
448
465
506
551
568
551
509
464
446
462
502
547
564
548
507
463
444
460
501
545
563
547
508
463
444
459
499
543
562
547
507
463
445
461
502
547
566
550
511
468
450
465
505
549
568
553
515
471
450
465
504
549
567
552
512
468
449
464
504
549
567
551
512
468
449
464
504
548
566
552
513
468
448
462
501
547
566
551
510
465
444
460
500
545
565
552
513
466
446
460
499
546
566
553
515
470
448
462
500
543
563
550
510
464
446
460
499
545
565
551
512
469
451
464
502
547
566
552
513
467
447
461
499
544
562
549
510
465
446
460
497
542
563
550
511
466
445
459
496
542
563
550
512
467
446
458
496
543
564
550
512
467
446
460
498
543
565
552
513
469
449
461
499
545
567
554
515
468
445
457
494
540
561
548
509
464
442
456
494
540
562
550
512
466
445
458
495
539
563
553
516
470
447
458
496
543
565
554
516
471
449
462
502
547
567
554
516
471
448
460
496
542
565
553
515
470
447
458
494
541
563
553
515
470
447
459
495
540
562
551
514
467
444
456
492
538
561
550
512
465
442
454
490
538
562
552
514
468
444
453
491
537
561
551
513
468
445
457
495
542
565
553
515
469
447
459
496
543
568
558
521
474
450
459
496
543
567
556
517
469
444
455
492
538
563
553
516
471
448
458
495
542
567
557
520
473
450
461
497
543
567
558
521
474
448
457
492
540
566
556
520
472
446
454
490
537
564
554
518
473
447
456
492
537
561
552
517
470
445
454
490
537
562
553
516
470
445
453
487
534
561
554
519
474
448
457
492
539
567
560
524
476
448
454
489
536
563
554
519
473
446
455
491
538
564
555
520
473
445
453
489
537
563
555
520
473
445
452
487
535
563
557
523
477
449
456
490
538
565
557
521
475
448
456
490
536
562
555
521
476
450
458
492
537
563
555
520
474
447
454
489
536
563
556
523
476
448
455
490
537
565
559
524
477
449
455
489
537
565
558
523
476
447
454
489
537
565
559
525
478
450
456
491
537
564
558
524
478
450
457
491
538
567
561
528
480
452
457
490
535
562
555
522
476
447
452
485
533
563
557
524
478
450
455
488
533
562
557
522
475
447
451
484
532
562
558
525
478
448
452
485
531
560
556
524
477
450
456
490
538
568
563
531
485
456
460
493
542
573
567
533
486
457
461
494
541
571
567
534
487
457
462
494
540
569
566
535
488
457
459
489
534
562
558
526
479
448
452
484
530
558
553
518
471
441
445
477
523
553
550
518
471
440
443
475
522
553
550
517
470
440
441
472
519
551
548
515
469
439
441
472
519
550
548
517
471
439
440
472
518
549
545
514
469
438
440
469
516
547
543
510
463
431
434
465
512
544
542
510
463
431
433
464
509
540
538
504
457
425
427
458
504
536
533
500
454
423
425
456
502
534
531
500
454
422
423
453
499
531
528
496
451
421
422
450
496
528
526
495
449
416
416
445
491
524
523
493
446
414
414
442
488
521
521
491
445
413
414
443
488
520
519
488
444
412
411
438
484
518
519
489
442
409
408
436
482
515
515
486
441
407
407
437
483
517
518
488
444
412
413
442
487
522
522
493
447
413
413
441
487
520
520
490
446
413
412
441
486
522
525
494
447
414
414
443
488
522
524
496
453
421
420
448
493
528
529
499
454
421
419
449
495
530
531
503
459
424
422
452
501
537
541
512
465
430
428
457
504
540
542
513
468
435
434
461
505
541
543
516
471
438
437
465
509
543
546
517
471
438
436
465
510
545
547
519
475
441
438
464
509
543
545
516
472
438
437
465
511
547
551
524
479
444
443
472
518
553
555
527
482
447
445
473
520
556
558
529
484
448
445
470
515
551
554
527
481
447
445
472
518
555
558
531
485
450
447
473
518
553
557
530
484
449
447
475
521
556
559
533
487
451
447
473
518
553
555
527
482
447
445
473
520
557
561
534
489
454
450
475
519
556
562
537
492
458
455
482
527
564
568
543
499
464
460
488
534
570
575
548
501
466
462
489
534
570
574
550
505
469
464
489
534
571
576
551
505
468
462
487
533
570
576
550
504
467
463
488
531
567
571
546
500
463
458
484
529
567
573
548
503
466
460
486
532
569
573
548
504
468
462
487
533
569
574
548
501
464
458
484
529
567
574
549
504
467
461
486
532
570
576
551
506
469
463
486
531
569
576
551
507
469
460
484
529
566
572
546
500
463
457
482
527
565
573
548
504
467
459
483
528
566
571
546
503
465
457
481
527
566
573
550
506
468
461
484
528
566
574
551
506
468
461
485
531
570
576
552
507
469
461
484
529
567
574
549
505
467
460
484
529
568
577
554
511
472
463
484
527
566
575
552
508
470
462
485
528
566
574
550
505
465
456
479
522
561
571
548
504
465
456
479
524
564
574
552
509
470
461
482
525
564
574
551
508
470
460
483
527
567
580
558
513
473
462
484
528
568
579
557
515
476
465
487
530
569
579
557
513
473
462
486
532
573
582
559
515
474
463
485
528
569
579
556
512
472
461
482
526
565
575
554
512
473
463
485
528
568
578
557
514
475
462
482
525
565
577
557
514
474
462
484
527
566
575
552
509
470
458
479
524
566
578
557
513
472
461
480
523
565
577
557
514
473
462
482
525
564
574
553
510
470
457
478
522
564
577
556
513
471
459
478
522
563
576
556
514
474
461
480
522
563
576
554
510
468
456
479
522
562
574
554
512
471
459
478
521
564
578
557
514
473
460
480
523
564
577
557
515
474
461
482
525
566
579
559
518
476
462
482
526
567
580
561
518
476
462
480
523
566
580
560
517
475
460
479
520
562
574
556
513
471
457
476
517
557
571
553
512
471
458
479
522
566
581
562
519
475
461
481
524
566
579
560
519
478
464
482
523
565
580
561
518
477
462
479
519
562
578
559
517
475
461
478
520
562
576
558
517
476
461
478
519
562
576
558
516
472
458
478
519
561
576
557
514
472
457
475
516
558
573
556
516
474
458
475
516
560
575
556
515
472
456
473
515
558
574
557
515
472
457
477
517
559
575
558
516
472
456
475
517
561
578
560
