978
498
317
644
789
463
664
1023
1008
512
332
662
802
468
681
1023
1023
528
341
653
770
440
678
1023
1023
532
337
624
723
404
672
1023
1023
532
327
584
662
360
660
1023
1023
529
319
554
614
328
657
1023
1023
529
306
496
527
274
636
1023
1023
523
293
440
444
228
618
1023
1017
516
281
386
362
186
602
1023
999
507
272
346
301
156
595
1023
986
501
265
306
244
129
588
1023
974
495
260
271
200
106
584
1023
961
489
256
245
170
90
585
1023
954
486
254
225
147
78
587
1023
944
481
252
201
122
65
588
1023
932
475
249
179
103
55
590
1023
915
467
245
166
93
50
595
1023
905
462
242
161
88
48
605
1023
896
458
240
158
86
47
616
1023
888
454
238
160
87
47
628
1023
882
451
237
159
86
46
640
1023
877
449
235
157
84
46
650
1023
870
445
234
154
83
45
659
1023
862
442
232
156
84
46
671
1023
855
439
230
154
82
45
680
1023
847
434
228
155
83
45
692
1023
842
432
227
154
82
45
702
1023
836
429
226
154
82
46
711
1023
830
426
224
154
82
48
722
1023
821
422
222
146
77
47
730
1023
807
415
218
153
81
51
740
1023
794
408
216
161
86
56
751
1023
786
405
215
164
87
60
761
1023
779
401
214
171
92
67
774
1023
773
398
214
174
93
73
785
1023
773
399
214
166
88
75
792
1023
766
395
211
158
84
77
798
1023
759
391
210
158
83
82
807
1023
751
387
211
168
89
92
818
1023
746
385
214
182
97
104
831
1023
738
381
216
192
102
114
842
1023
729
376
222
214
115
131
856
1023
725
375
232
240
131
149
871
1023
720
372
238
255
140
163
883
1023
714
369
242
260
143
174
892
1023
708
366
247
270
148
187
903
1023
703
364
249
272
148
197
911
1023
697
361
252
276
150
209
920
1023
694
359
252
270
146
217
926
1023
688
356
252
269
145
228
934
1023
679
352
252
266
143
238
941
1023
674
350
253
261
139
248
947
1023
669
347
256
264
141
260
955
1023
662
343
257
263
140
275
963
1023
658
342
261
270
143
288
971
1023
652
338
268
276
146
306
981
1023
649
336
269
275
146
320
988
1023
645
335
264
260
137
327
992
1023
634
329
266
260
137
343
1000
1023
629
327
262
251
132
350
1003
1023
620
322
268
259
136
369
1013
1023
616
320
272
260
136
384
1020
1023
611
318
277
265
139
399
1023
1023
606
316
276
258
135
411
1023
1023
601
313
276
254
133
422
1023
1023
592
308
278
253
133
433
1023
1023
586
305
277
250
131
445
1023
1023
580
302
280
250
131
458
1023
1023
572
298
290
263
138
475
1023
1023
567
296
289
256
134
486
1023
1023
562
293
288
251
132
495
1023
1023
556
290
285
242
127
504
1023
1023
550
287
289
244
128
518
1023
1023
547
286
282
231
122
526
1023
1023
537
281
290
238
126
539
1023
1023
533
279
300
249
131
556
1023
1023
530
277
300
245
129
565
1023
1023
524
276
312
256
135
582
1023
1023
520
275
315
255
134
593
1023
1010
514
272
315
252
133
603
1023
997
507
271
327
264
139
618
1023
989
504
271
333
267
140
630
1023
976
498
269
333
264
138
639
1023
963
492
267
335
262
138
649
1023
954
488
267
338
262
138
660
1023
943
482
267
347
269
141
673
1023
933
478
267
351
271
142
684
1023
926
474
266
350
265
140
693
1023
916
469
266
351
263
138
701
1023
903
463
264
353
262
138
713
1023
893
458
265
356
261
137
723
1023
887
455
266
358
259
136
733
1023
877
451
266
361
259
137
741
1023
869
447
268
368
265
140
754
1023
861
443
269
369
261
139
762
1023
853
439
271
376
265
143
773
1023
847
436
271
372
257
140
780
1023
837
431
271
372
255
142
789
1023
828
427
273
379
258
145
799
1023
818
422
272
374
251
145
806
1023
809
417
274
378
251
147
813
1023
800
413
276
384
255
154
825
1023
792
409
278
386
255
158
833
1023
786
406
283
395
258
164
843
1023
779
403
284
393
254
167
850
1023
771
399
285
394
253
172
859
1023
762
394
283
386
243
173
865
1023
754
390
281
378
234
174
870
1023
747
387
283
379
233
180
878
1023
738
382
282
376
229
184
884
1023
728
377
284
379
229
192
893
1023
721
373
288
383
231
200
901
1023
712
369
290
384
229
209
910
1023
705
365
298
396
237
222
921
1023
700
363
300
396
234
230
928
1023
692
359
305
400
236
240
935
1023
684
355
306
399
233
249
943
1023
676
351
310
405
237
261
951
1023
672
349
321
418
243
275
961
1023
668
347
323
414
239
289
970
1023
664
345
322
410
235
296
975
1023
658
342
323
407
231
303
980
1023
651
338
322
400
224
311
985
1023
642
334
324
397
221
322
991
1023
633
329
324
395
218
334
998
1023
627
326
330
402
222
349
1006
1023
621
323
337
406
223
365
1015
1023
617
321
336
398
217
375
1020
1023
611
318
339
399
216
389
1023
1023
604
315
338
392
210
399
1023
1023
597
311
341
392
210
412
1023
1023
591
308
340
387
206
420
1023
1023
585
305
343
388
206
435
1023
1023
578
302
343
381
200
444
1023
1023
571
298
345
380
199
455
1023
1023
566
295
351
386
202
472
1023
1023
562
294
357
388
202
487
1023
1023
555
290
359
386
200
496
1023
1023
550
288
363
386
200
508
1023
1023
545
287
368
388
201
523
1023
1023
540
285
376
394
203
536
1023
1023
535
284
380
393
202
547
1023
1023
528
282
389
401
206
562
1023
1023
525
282
389
395
202
572
1023
1023
520
281
397
399
204
584
1023
1011
514
279
401
401
205
598
1023
1004
510
279
402
397
203
608
1023
994
505
278
403
392
199
617
1023
984
500
279
415
402
205
632
1023
975
496
279
418
398
202
640
1023
959
489
277
421
397
201
650
1023
949
484
278
424
396
201
662
1023
939
479
275
418
382
194
668
1023
930
475
276
422
381
194
679
1023
922
471
276
422
375
191
689
1023
911
466
274
420
367
187
697
1023
902
461
273
414
352
180
701
1023
886
454
273
419
354
181
712
1023
877
449
276
430
362
185
725
1023
872
447
275
425
349
179
732
1023
860
441
275
426
346
177
740
1023
851
437
280
440
358
183
755
1023
845
434
283
446
359
184
766
1023
837
430
284
445
353
182
771
1023
825
424
285
449
353
183
783
1023
822
423
290
456
354
185
794
1023
814
419
287
447
339
180
799
1023
808
416
289
446
333
178
805
1023
794
409
291
454
339
184
820
1023
787
406
296
461
340
188
827
1023
782
403
298
461
336
189
835
1023
773
399
294
449
320
185
839
1023
763
394
291
439
306
182
843
1023
752
388
290
434
298
183
850
1023
748
386
291
431
291
184
856
1023
737
381
288
425
283
184
861
1023
731
378
290
424
280
189
870
1023
721
373
291
423
276
193
878
1023
716
370
292
421
271
196
883
1023
710
367
290
411
259
198
889
1023
699
362
290
410
257
205
897
1023
695
359
294
411
254
211
904
1023
689
356
292
404
246
214
909
1023
682
353
292
401
242
222
918
1023
676
350
292
395
235
226
923
1023
666
345
285
378
221
228
926
1023
660
342
286
375
218
236
933
1023
654
339
284
367
210
242
938
1023
649
336
284
360
204
247
943
1023
640
332
283
357
201
257
949
1023
634
329
286
357
199
268
957
1023
626
325
293
365
204
283
967
1023
623
323
299
372
207
297
975
1023
617
321
305
378
209
309
982
1023
612
318
308
379
208
323
991
1023
608
316
312
379
207
336
998
1023
603
313
311
374
203
348
1004
1023
596
310
309
365
196
356
1008
1023
591
307
312
364
195
371
1015
1023
586
304
309
353
188
382
1021
1023
579
301
300
333
176
385
1023
1023
571
297
303
336
177
402
1023
1023
566
295
298
322
168
405
1023
1023
556
289
303
326
170
422
1023
1023
552
288
314
339
177
441
1023
1023
549
286
312
328
170
448
1023
1023
543
283
314
327
169
460
1023
1023
540
281
321
331
171
477
1023
1023
534
278
323
332
171
490
1023
1023
531
277
322
323
166
498
1023
1023
525
274
322
319
164
509
1023
1023
520
272
327
319
164
523
1023
1015
516
270
324
310
159
533
1023
1004
510
268
319
295
152
538
1023
992
505
265
317
289
149
548
1023
978
498
262
318
286
148
558
1023
966
492
260
329
297
153
574
1023
957
488
259
336
303
156
590
1023
949
484
258
337
297
153
600
1023
939
480
257
341
297
153
610
1023
927
474
256
343
297
153
622
1023
919
471
256
351
300
155
634
1023
910
466
256
356
302
156
647
1023
906
464
258
361
303
157
658
1023
895
459
255
355
292
151
665
1023
883
453
255
365
299
155
678
1023
874
449
256
368
297
154
688
1023
863
443
257
378
304
157
702
1023
856
440
259
382
303
157
712
1023
847
436
257
377
293
152
718
1023
840
432
257
378
289
150
726
1023
830
428
257
376
284
148
735
1023
823
424
254
366
268
140
739
1023
816
420
252
355
251
132
744
1023
804
414
246
336
228
121
742
1023
783
404
237
318
211
113
746
1023
771
398
235
311
200
109
751
1023
770
397
229
272
163
91
750
1023
780
403
211
144
77
46
724
1023
800
412
216
114
62
35
704
1023
826
425
222
118
63
35
692
1023
874
449
235
125
67
37
695
1023
932
477
249
132
71
40
711
1023
1016
518
271
144
77
46
732
1023
1023
527
276
146
78
47
734
1023
930
477
249
132
71
40
713
1023
755
390
204
109
58
32
695
1023
624
323
170
90
48
27
700
1023
601
312
164
87
47
37
748
1023
606
314
201
266
147
136
856
1023
657
341
544
919
733
479
1023
1023
722
414
903
1023
1023
836
1023
1023
776
551
1023
1023
1023
1023
1023
1023
833
729
1023
1023
1023
1023
1023
1023
871
878
1023
1023
1023
1023
1023
1023
905
988
1023
1023
1023
1023
1023
1023
928
1023
1023
1023
1023
1023
1023
1023
948
1023
1023
1023
1023
1023
1023
1023
982
1023
1023
1023
1023
1023
1023
1023
867
1023
1023
1023
1023
1023
1023
1023
551
867
1023
1023
1023
1023
1023
1023
600
1010
1023
1023
1023
1023
1023
1023
696
1023
1023
1023
1023
1023
1023
1023
831
1023
1023
1023
1023
1023
1023
1023
930
1023
1023
1023
1023
1023
1023
1023
788
1023
1023
1023
1023
1023
1023
1023
702
1023
1023
1023
1023
1023
1023
1023
678
1023
1023
1023
1023
1023
1023
939
617
1023
1023
1023
1023
1023
1023
833
567
1023
1023
1023
1023
1023
817
430
352
983
1023
1023
1023
1023
636
337
501
1023
1023
1023
1023
1023
708
374
572
1023
1023
1023
1023
1023
714
377
480
1023
1023
1023
1023
1023
685
362
405
1023
1023
1023
1023
1023
674
356
427
1023
1023
1023
1023
1023
688
363
529
1023
1023
1023
1023
1023
673
356
515
1023
1023
1023
1023
1023
617
327
362
1002
1023
1023
1023
1023
536
284
200
852
1023
1023
1023
867
453
240
129
670
1023
1023
1023
714
374
199
107
478
1023
1023
1023
601
316
168
90
342
992
1023
1021
524
276
147
79
272
937
1023
909
468
246
131
71
230
894
1023
825
426
224
119
64
196
843
1023
740
382
201
107
58
164
767
1023
658
339
178
95
51
140
702
966
591
305
160
85
46
126
663
914
551
284
149
79
43
119
637
875
523
270
142
75
40
112
606
829
488
252
132
70
38
99
558
761
439
226
118
63
34
81
497
676
380
195
102
54
29
55
405
545
294
151
78
41
23
25
276
367
187
96
50
26
14
8
114
137
68
34
18
10
6
4
2
2
1
1
1
1
1
1
1
1
1
1
1
1
1
1
1
1
1
1
1
1
1
1
1
1
1
1
1
1
1
1
1
1
1
1
1
1
1
1
1
1
1
1
1
1
1
1
1
1
1
1
1
1
1
1
1
1
1
1
1
1
1
1
157
272
147
74
38
20
23
435
953
1023
843
434
227
121
223
703
1023
1023
686
354
186
99
177
694
1023
1023
974
510
268
197
592
1023
1023
1023
1023
1023
1023
1023
1023
1023
1023
1023
1023
1023
1023
1023
1023
1023
1023
1023
1023
1023
1023
1023
1023
1023
1023
1023
1023
1023
1023
1023
1023
1023
1023
1023
1023
1023
1023
1023
1023
1023
1023
1023
1023
1023
1023
1023
1023
1023
1023
1023
1023
1023
1023
1023
1023
1023
1023
1023
1023
1023
1023
1023
1023
1023
1023
1023
1023
1023
1023
1023
1023
1023
1023
1023
1023
1023
1023
1023
1023
1023
1023
1023
1023
1023
1023
1023
1023
1023
1023
1023
1023
1023
1023
1023
1023
1023
1023
1023
1023
1023
1023
1023
1023
1023
1023
1023
1023
1023
1023
1023
1023
1023
1023
1023
1023
1023
1023
1023
1023
1023
1023
1023
1023
1023
1023
1023
1023
1023
1023
1023
1023
1023
1023
1023
1023
994
798
546
294
158
86
48
27
16
9
6
4
3
2
2
2
1
1
1
1
1
1
1
1
1
1
1
1
1
1
1
1
1
1
1
1
1
1
1
1
1
1
1
1
1
1
1
1
1
1
1
1
1
1
1
1
1
1
1
1
1
1
1
1
1
1
1
1
1
1
1
1
1
1
1
1
1
1
1
1
1
1
1
1
1
1
1
1
1
1
1
1
1
1
1
1
1
1
1
1
1
1
1
1
1
1
1
1
1
1
1
1
1
1
1
1
1
1
1
1
1
1
1
1
1
1
1
1
1
1
1
1
1
1
1
1
1
1
1
1
1
1
0
1
1
0
1
1
1
1
1
1
1
0
1
0
1
1
1
1
1
1
1
1
1
1
1
1
1
1
1
1
1
1
1
1
1
1
1
1
1
0
1
1
1
1
0
1
1
1
1
0
1
1
1
1
1
1
1
1
1
1
1
1
1
1
1
1
1
1
0
1
1
0
1
0
1
0
1
1
1
1
1
1
1
1
1
1
1
1
1
1
1
1
0
1
1
1
1
1
1
1
1
1
1
1
1
1
1
1
1
0
1
0
1
1
1
0
1
0
1
1
1
1
1
1
1
1
1
1
1
7
122
114
57
29
15
8
4
45
268
312
161
82
42
22
12
72
369
480
271
139
72
38
20
61
389
581
358
183
95
50
27
51
340
505
298
152
79
41
22
39
300
444
252
129
67
35
19
29
261
387
213
108
56
29
16
23
238
351
188
96
49
26
14
21
225
325
171
87
45
23
13
13
172
240
121
61
31
16
9
5
65
78
38
19
10
5
3
2
1
1
1
1
1
1
1
1
1
1
1
1
1
1
1
1
1
1
1
1
1
1
1
1
0
1
1
1
1
1
1
1
1
1
1
1
1
1
1
0
1
0
1
1
1
1
1
0
1
1
1
1
1
0
0
0
1
1
1
1
1
1
1
1
1
1
1
1
1
1
1
1
1
1
1
1
1
1
1
0
1
1
1
1
1
0
1
1
1
1
0
1
1
1
1
1
0
1
1
1
1
0
1
1
1
1
1
1
1
0
1
1
0
1
1
0
1
0
1
1
1
1
1
1
1
1
1
1
1
1
1
1
1
1
1
1
1
1
1
1
1
1
1
1
1
1
0
0
1
0
1
1
0
1
1
1
1
1
1
1
1
1
1
0
1
0
1
1
1
1
1
1
0
1
0
1
1
1
1
1
1
1
1
1
1
1
1
1
0
1
1
1
1
1
1
1
1
1
1
1
1
1
1
1
1
1
45
366
566
452
232
120
63
65
668
1023
1023
1023
1023
815
428
310
865
1023
1023
1023
1023
770
406
217
518
1023
1023
1023
764
399
212
295
946
1023
1023
1023
1023
1003
551
985
1023
1023
1023
1023
1023
1023
1023
1023
1023
1023
1023
1023
1023
1023
1023
1023
1023
1023
1023
1023
1023
1023
1023
1023
1023
1023
1023
1023
1023
1023
1020
613
898
1023
1023
687
363
195
106
58
32
18
11
7
4
3
2
2
2
1
1
1
1
1
1
1
6
212
281
144
73
38
20
11
395
1020
1023
1023
806
421
223
121
763
1023
1023
1023
1023
940
492
287
916
1023
1023
1023
1023
1023
542
365
995
1023
1023
1023
1023
1023
574
467
1023
1023
1023
1023
1023
1023
605
591
1023
1023
1023
1023
1023
1023
631
708
1023
1023
1023
1023
1023
1023
657
813
1023
1023
1023
1023
1023
1023
697
917
1023
1023
1023
1023
1023
1023
749
1023
1023
1023
1023
1023
1023
1023
1023
1023
1023
1023
1023
1023
1023
1023
1023
1023
1023
1023
1023
1023
1023
1023
1023
1023
1023
1023
1023
1023
1023
1023
1023
1023
1023
1023
1023
1023
1023
1023
1023
1023
1023
1023
1023
1023
1023
1023
1023
1023
1023
1023
1023
1023
1023
1023
1023
1023
1023
1023
1023
1023
1023
1023
1023
1023
1023
1023
1023
1023
1023
1023
1023
1023
1023
1023
1023
1023
1023
1023
1023
1023
1023
1023
1023
1023
1023
1023
1023
1023
1023
1023
1023
1023
1023
1023
1023
1023
1023
1023
1023
1023
1023
1023
1023
1023
1023
1023
1023
1023
1023
1023
1023
1023
1023
1023
1023
1023
1023
694
370
495
1023
1023
1023
1023
938
1023
1023
1023
1023
1023
1023
1023
1023
1023
1023
1023
1023
1023
1023
1023
1023
1023
1023
1023
1023
1023
1023
1023
1023
1023
1023
1023
1023
1023
1023
1023
1023
1023
1023
1023
1023
1023
1023
1023
1023
1023
1023
1023
1023
1023
1023
1023
1023
1023
1023
1023
1023
1023
1023
1023
1023
1023
1023
1023
1023
1023
1023
1023
1023
1023
1023
1023
1023
1023
1023
1023
1023
1023
1023
1023
1023
1023
1023
1023
1023
1023
1023
1023
1023
1023
1023
1023
1023
1023
1023
1023
1023
1023
1023
1023
1023
1023
1023
1023
1023
1023
1023
1023
1023
1023
1023
1023
1023
1023
1023
1023
1023
1023
1023
1023
1023
1023
1023
1023
1023
1023
1023
1023
1023
1023
1023
660
352
190
104
57
32
18
11
7
5
3
3
2
2
2
1
1
1
1
1
1
1
1
1
1
1
1
1
1
1
1
1
1
1
1
1
1
1
1
1
1
1
1
1
1
1
1
1
1
1
1
1
1
1
1
1
1
1
1
1
1
1
1
1
1
1
1
1
1
1
1
1
1
1
1
1
1
1
1
1
1
1
1
1
1
1
1
1
1
1
1
1
1
1
1
1
1
1
1
1
1
1
1
0
1
1
1
1
1
1
1
1
1
1
1
1
1
0
1
1
1
1
1
1
1
1
1
1
1
1
1
39
416
650
674
645
623
987
1023
1023
1023
1023
1023
1023
1023
1023
1023
1023
1023
1023
1023
1023
1023
1023
1023
1023
1023
1023
1023
1023
1023
1023
1023
1023
1023
1023
1023
617
329
177
96
53
30
17
10
6
4
3
2
2
2
1
1
1
1
1
79
419
547
276
143
75
40
21
12
7
4
3
2
2
1
1
1
1
1
1
1
1
1
1
1
1
1
1
1
1
1
1
1
1
1
1
1
1
1
1
1
1
1
1
1
1
221
920
1023
1023
1023
1023
1023
1023
1023
1023
1023
1023
1023
1023
1023
1023
1023
1023
1023
1023
1023
1023
1023
1023
1023
1023
925
651
403
216
117
64
36
20
12
7
5
3
2
2
2
1
1
1
1
1
1
1
1
1
1
1
1
1
1
1
1
1
1
1
1
1
1
1
1
1
1
1
1
1
1
1
1
1
1
1
1
1
1
1
1
1
1
1
1
1
1
1
1
1
1
1
1
1
1
1
1
1
1
1
1
1
1
1
1
1
1
1
1
1
1
1
1
1
1
1
0
0
1
1
1
1
1
1
1
1
1
1
1
1
1
1
1
1
0
0
1
1
1
1
1
1
1
1
1
1
1
1
1
0
1
1
1
0
1
0
1
1
1
1
1
1
1
1
1
1
1
1
1
1
0
1
0
1
1
1
0
1
0
1
1
1
1
1
1
1
1
1
1
1
1
1
1
1
1
1
1
1
1
1
1
1
1
1
0
1
1
1
1
1
1
1
1
1
1
1
1
1
0
1
1
1
1
1
1
0
1
1
1
1
1
1
1
1
1
0
0
1
1
0
0
0
1
1
1
0
1
1
1
1
1
1
1
1
1
1
1
0
1
1
1
1
1
0
1
0
1
1
0
1
1
1
1
1
1
1
1
1
0
1
1
1
0
1
1
1
1
1
1
1
1
1
1
1
1
1
1
1
1
3
31
19
9
5
3
2
1
18
52
29
15
7
4
2
1
1
1
1
1
1
1
1
1
1
0
1
1
0
1
0
1
1
1
1
1
0
1
1
1
39
124
137
76
38
19
10
6
3
2
1
1
1
1
1
1
1
1
1
1
1
1
0
1
1
1
1
1
0
1
1
1
1
22
41
30
15
7
4
60
206
305
304
240
127
67
109
227
383
489
498
445
330
272
323
410
543
596
546
447
311
245
289
381
523
596
585
537
433
391
459
579
749
860
884
833
710
656
707
803
947
1022
1007
940
806
740
792
887
1023
1023
1023
1023
986
942
1009
1023
1023
1023
1023
1023
1023
1023
1023
1023
1023
1023
1023
1023
1023
1002
1023
1023
1023
1023
1023
1023
1023
971
1023
1023
1023
1023
1023
1023
1023
1023
1023
1023
1023
1023
1023
1023
1023
1023
1023
1023
1023
1023
1023
1023
1023
1023
1023
1023
1023
1023
1023
1023
1023
1023
1023
1023
1023
1023
1023
1023
1023
1023
1023
1023
1023
1023
1023
1023
1023
1023
1023
1023
1023
1023
1023
1023
1023
1023
1023
1023
1023
1023
1023
1023
1023
1023
1023
1023
1023
1023
1023
1023
1023
1023
1023
1023
1023
1023
1023
1023
1023
1023
1023
1023
1023
1023
1023
1023
1023
985
969
1023
1023
1023
1023
1023
921
882
926
1019
1023
1023
1023
1023
939
893
920
990
1023
1023
1023
999
885
853
899
1000
1023
1023
1023
976
848
821
867
959
1023
1023
1023
970
835
782
807
886
978
983
947
872
776
777
833
926
1023
1023
1023
949
820
780
809
893
1002
1023
997
902
794
773
825
937
1023
1023
1011
913
818
828
905
991
1023
1023
1012
906
797
798
857
954
1023
1023
1023
934
813
799
849
944
1023
1023
999
874
764
756
810
911
1005
997
933
828
721
707
753
851
946
946
879
750
631
615
653
743
837
823
746
632
543
550
609
704
793
788
730
638
547
548
609
707
797
811
783
704
616
617
667
761
856
873
833
735
649
660
728
849
950
960
907
807
732
751
808
906
1002
1021
991
894
798
792
853
976
1023
1023
1023
937
843
861
919
1019
1023
1023
1023
957
876
887
949
1023
1023
1023
1023
951
850
858
921
1023
1023
1023
1023
979
888
896
958
1023
1023
1023
1023
983
904
939
1023
1023
1023
1023
1023
1019
934
953
1007
1023
1023
1023
1023
958
868
865
914
1023
1023
1023
1023
964
867
868
924
1023
1023
1023
1023
921
838
848
901
1002
1023
1023
1014
905
813
814
877
993
1023
1023
991
875
790
792
861
996
1023
1023
993
879
813
821
866
971
1023
1023
948
814
729
738
803
909
977
950
891
790
722
739
809
934
993
950
866
746
686
719
794
906
967
934
859
731
656
695
780
904
965
930
849
730
666
679
724
821
892
880
823
714
649
656
714
830
891
862
792
671
603
628
676
805
896
875
811
691
620
631
691
804
866
846
772
638
551
564
635
733
771
722
620
464
387
409
475
574
605
531
424
267
160
146
174
253
249
154
81
44
25
14
8
5
4
3
2
2
1
1
1
1
1
1
1
1
1
1
1
1
1
1
1
1
1
1
1
1
1
1
1
1
1
1
1
1
1
1
1
1
1
1
1
1
1
1
1
1
1
1
1
1
1
1
1
0
1
1
1
1
1
1
1
1
1
1
1
1
1
1
1
0
1
0
1
1
1
1
1
1
1
1
1
17
143
249
291
263
293
415
604
883
1023
1023
1023
1023
1023
1023
1023
1023
1023
1023
1023
1023
1023
1023
1023
1023
1023
1023
1023
1023
1023
1023
1023
1023
1023
1023
1023
1023
1023
1023
1023
1023
1023
1023
1023
1023
1023
1023
1023
1023
1023
1023
1023
1023
1023
1023
1023
1023
1023
1023
1023
1023
1023
1023
1023
1023
1023
1023
1023
1023
1023
1023
1023
1023
1023
1023
1023
1023
1023
1023
1023
1023
1023
1023
1023
1023
1023
1023
1023
1023
1023
1023
1023
1023
1023
867
814
1023
1023
1023
1023
1023
1023
1023
1023
1023
1023
1023
1023
1023
1023
1023
1023
1023
1023
1023
1023
1023
1023
576
309
167
91
50
28
16
10
6
4
3
21
206
508
987
1023
1023
1023
1023
1023
1023
1023
1023
1023
1023
1023
1023
1023
1023
1023
1023
1023
1023
1023
1023
1023
1023
1023
1023
1023
1023
1023
1023
1023
1023
1023
1023
1023
1023
1023
1023
1023
1023
1023
1023
1023
1023
1023
1023
1023
1023
1023
1023
1023
1023
1023
1023
1023
1023
1023
1023
1023
1023
1023
1023
1023
1023
1023
1023
1023
1023
1023
1023
1023
1023
1023
1023
833
513
278
150
82
46
26
15
9
6
4
3
2
2
1
1
1
1
1
1
1
1
1
1
1
1
1
1
1
1
1
1
1
1
1
1
1
1
1
1
1
1
1
6
3
2
1
1
31
140
272
326
261
143
73
38
20
11
6
4
2
2
1
1
1
1
1
1
1
1
137
612
1023
1023
1023
1023
1023
1023
1023
1023
1023
1023
1023
1023
1023
895
481
258
140
76
42
24
14
8
5
3
3
2
2
1
1
1
1
1
1
1
1
1
1
1
1
1
1
1
1
1
1
1
1
1
1
1
1
1
1
1
1
1
1
1
1
1
1
1
1
1
1
1
1
1
1
1
1
1
1
1
1
1
1
1
1
1
1
1
1
54
122
167
173
216
323
458
602
687
693
658
568
528
585
695
861
981
996
988
970
1009
1023
1023
1023
1023
1023
1023
1023
1023
1023
1023
1023
1023
1023
1023
1023
1023
1023
1023
1023
1023
1023
1023
1023
1023
1023
1023
1023
1023
1023
1023
1023
1023
1023
1023
1023
1023
1023
1023
1008
960
985
1022
1023
1023
1005
881
715
632
637
657
712
723
662
584
490
444
450
484
548
547
480
404
298
246
275
341
438
457
419
364
272
228
250
303
388
410
349
271
170
129
163
220
303
317
263
187
99
64
93
148
230
270
254
203
113
86
118
175
284
353
338
279
193
176
222
276
353
399
395
329
198
137
178
248
341
372
328
256
149
105
137
185
264
272
224
147
75
40
29
68
141
128
67
34
18
10
6
4
3
2
1
1
1
1
1
1
1
1
1
1
1
1
1
1
1
1
1
1
1
1
1
1
1
1
1
0
1
1
1
1
24
32
16
8
4
2
1
5
59
76
46
23
12
6
3
29
127
175
162
106
53
27
31
78
168
207
167
92
47
24
13
12
61
73
43
21
11
6
3
2
41
40
20
10
5
3
2
1
47
82
74
40
20
10
6
63
174
224
212
144
72
52
109
198
292
323
306
257
179
167
220
318
424
441
397
314
224
215
245
308
394
408
361
289
200
200
244
307
386
392
329
227
132
121
177
245
320
346
310
216
115
97
145
234
331
360
333
266
187
185
245
323
411
429
413
356
280
286
344
410
471
478
441
359
284
300
359
467
568
568
531
453
365
359
405
486
565
559
525
462
383
371
409
497
578
586
556
481
405
416
484
572
652
641
586
508
450
498
633
787
941
1023
1023
1016
919
867
842
848
845
760
630
480
368
347
395
484
572
594
570
513
457
484
554
663
748
751
717
640
559
547
592
688
757
742
712
650
563
551
599
697
788
795
749
640
547
544
602
679
742
736
700
625
538
530
587
684
758
756
703
602
533
541
599
711
809
801
737
634
556
555
587
663
744
747
725
658
591
593
646
758
841
818
745
654
590
600
648
751
847
876
837
728
663
679
730
839
912
880
806
696
626
652
722
821
892
890
852
769
681
676
715
799
845
817
762
666
583
578
621
722
795
777
721
617
537
557
593
654
687
664
607
502
404
381
420
516
588
562
496
396
334
346
388
478
541
518
464
392
348
371
434
537
601
584
535
451
395
424
503
619
678
652
612
543
506
541
608
715
775
764
724
636
602
625
648
717
774
779
732
638
589
622
704
812
862
822
749
639
583
612
671
760
785
754
700
592
528
546
602
711
750
697
613
496
438
448
506
624
680
665
624
512
423
434
497
595
660
647
587
474
397
400
452
560
633
613
560
462
412
418
466
552
586
562
512
403
350
388
453
536
572
542
468
356
299
326
400
511
563
532
459
361
330
374
432
515
559
544
490
387
329
350
421
537
578
529
450
346
302
334
403
502
545
518
475
397
344
359
419
510
546
510
457
372
329
328
367
467
507
488
442
343
304
344
413
503
535
508
430
313
279
327
411
518
558
514
435
342
313
346
415
510
535
512
477
376
326
345
410
499
523
493
437
348
305
338
418
530
557
521
456
355
317
343
398
489
527
499
421
314
286
313
380
486
542
521
452
351
326
351
411
507
560
539
469
364
328
364
444
547
580
556
480
386
368
417
484
567
580
534
461
368
349
388
443
513
551
543
478
361
311
338
414
507
518
468
386
301
298
340
410
518
562
542
505
475
520
624
775
949
1007
964
857
696
582
510
485
495
445
353
249
156
147
208
314
428
477
452
370
282
274
333
431
532
550
519
452
376
372
384
446
553
575
524
433
325
312
372
466
563
588
564
488
391
378
409
476
580
612
581
525
460
453
484
557
637
644
615
537
454
449
496
582
680
679
605
526
447
440
488
579
660
664
631
556
457
443
488
582
699
730
697
614
524
522
577
670
757
763
732
653
587
617
711
818
924
951
904
814
728
721
758
829
894
880
852
789
706
683
708
773
852
854
794
691
596
579
632
713
779
768
704
606
495
473
502
567
633
626
544
449
383
397
428
488
541
519
487
401
317
330
386
450
510
498
448
353
293
312
369
483
581
592
535
415
327
341
408
508
572
528
475
388
289
282
331
402
434
395
333
220
117
63
41
77
127
122
64
33
18
10
6
4
3
2
2
1
1
1
1
1
1
1
1
1
1
1
1
1
1
1
1
1
1
1
1
1
1
1
1
1
1
1
1
1
1
1
1
1
1
1
1
1
1
1
1
1
1
1
1
1
0
1
1
1
1
1
1
1
1
1
1
1
1
1
1
1
1
1
1
1
1
1
1
0
1
1
1
1
1
1
1
1
1
1
1
1
150
790
1023
1023
1023
1023
1023
1023
1023
1023
1023
1023
1023
1023
1023
1023
1023
1023
1023
1023
1023
1023
1023
1023
1023
1023
1023
1023
1023
1023
1023
1023
1023
1023
1023
1023
1023
1023
1023
1023
1023
1023
1023
1023
1023
1023
1023
1023
1023
1023
1023
1023
1023
1023
1023
1023
1023
1023
1023
1023
1023
1023
1023
1023
1023
1023
1023
920
484
260
141
77
43
24
14
9
5
4
3
2
2
1
1
15
179
360
519
565
600
715
854
1023
1023
1023
1023
851
758
806
940
1023
1023
1023
1023
943
871
935
1023
1023
1023
1023
1023
1002
925
955
1023
1023
1023
1023
1023
999
894
912
977
1023
1023
1023
1023
925
868
910
1004
1023
1023
1023
1023
1023
1023
1023
1023
1023
1023
1023
1023
1023
1023
1023
1023
1023
1023
1023
1023
1023
1023
1023
1023
1023
1023
1023
1023
991
934
947
1012
1023
1023
1023
1017
886
841
865
917
1011
1023
1007
917
780
716
738
819
939
989
938
839
699
636
651
727
829
867
837
756
641
606
643
728
854
901
866
791
693
657
680
744
856
893
847
750
635
599
645
722
801
817
785
712
597
562
593
659
740
757
729
646
525
487
522
579
661
683
645
572
475
434
444
493
578
604
582
491
378
346
378
437
528
542
489
433
351
322
346
413
505
538
506
428
326
290
321
399
483
495
459
371
267
228
239
315
396
390
349
273
170
130
159
230
320
350
310
217
115
104
149
205
298
337
312
235
144
122
154
221
320
371
365
295
191
160
198
277
359
376
353
296
219
202
246
354
466
499
452
347
256
251
301
387
485
504
467
392
303
300
362
450
537
536
499
421
335
316
361
441
523
529
500
442
377
363
403
491
579
593
558
489
421
409
439
529
631
652
618
528
444
429
457
520
591
599
568
499
414
374
395
500
622
653
623
514
424
431
477
557
625
626
589
504
419
412
447
543
632
646
618
521
425
428
465
520
578
570
507
418
382
424
461
544
623
626
581
468
379
375
411
506
582
586
556
472
399
383
414
510
588
587
545
448
384
366
368
441
541
567
529
442
376
384
424
500
578
552
517
424
335
321
367
476
559
553
505
422
344
336
372
460
521
505
465
392
333
341
405
510
588
589
546
442
352
348
391
476
518
491
449
357
284
304
368
466
541
544
494
406
339
344
389
477
537
543
478
371
318
347
411
496
558
553
526
412
321
331
373
450
517
525
506
432
363
359
395
486
555
533
480
392
343
376
442
531
583
576
528
433
377
400
442
509
568
585
550
463
396
395
449
549
610
583
514
414
348
347
390
476
541
544
513
433
381
402
460
560
596
557
497
392
328
342
417
534
597
605
581
503
481
590
758
939
1023
1023
1008
851
709
639
601
591
559
480
375
236
175
209
300
425
494
483
440
357
327
366
429
506
559
556
500
396
338
360
402
475
537
546
486
379
339
367
426
514
538
505
470
393
347
366
418
509
557
548
488
371
317
325
380
481
518
496
452
366
320
335
388
480
524
519
465
377
332
342
392
467
517
509
445
350
307
321
378
474
515
491
428
332
307
354
441
549
570
525
446
347
330
368
436
525
547
508
462
392
361
389
459
550
578
543
481
383
350
386
453
521
537
510
447
337
312
358
410
474
488
456
385
295
257
251
274
356
369
336
260
147
108
140
213
314
349
308
207
106
69
94
169
270
310
300
243
136
99
123
189
267
290
274
208
119
126
165
221
318
342
295
213
112
94
152
237
327
364
366
315
202
149
167
236
332
355
312
234
154
160
225
291
359
371
352
279
168
142
179
265
362
403
391
314
195
152
173
250
348
369
313
223
140
148
198
270
364
396
365
287
205
197
233
300
387
409
375
308
217
206
274
344
405
389
346
273
197
196
234
308
389
398
364
295
223
227
273
351
420
427
392
300
218
219
249
321
389
397
377
296
216
212
249
334
424
444
408
320
243
252
294
372
434
424
389
301
202
201
255
339
406
420
388
308
242
246
281
358
432
432
389
311
232
223
281
366
436
437
405
336
256
236
259
344
423
438
399
317
240
237
270
343
409
404
373
302
235
242
286
360
424
424
391
317
245
230
263
349
434
446
404
309
229
221
259
349
424
430
397
311
235
234
253
318
384
400
393
317
234
227
272
366
434
408
361
297
227
223
277
368
434
445
412
310
226
226
276
377
453
442
399
310
249
263
307
391
444
410
361
268
214
236
302
395
449
435
385
293
230
232
295
399
473
469
414
295
214
231
288
371
428
407
365
268
207
201
245
344
395
380
356
287
248
303
409
549
694
796
813
728
658
629
608
597
544
445
322
175
93
59
101
198
264
262
221
148
114
152
203
306
366
372
332
229
160
160
209
316
374
351
313
223
171
196
257
362
394
369
341
267
209
221
266
354
393
372
323
228
173
202
260
360
417
396
347
262
229
255
304
409
464
440
381
280
246
303
342
408
448
429
391
303
263
281
336
442
494
481
432
328
285
326
396
496
547
536
487
403
364
367
415
520
573
549
479
383
347
393
491
601
614
571
495
376
333
370
443
554
601
579
521
415
350
351
392
473
497
475
420
322
280
285
315
386
406
378
337
250
196
209
252
328
346
297
228
138
104
129
195
303
352
327
278
188
143
151
212
335
384
346
264
152
122
162
228
342
381
355
302
210
161
186
264
372
415
384
311
202
154
187
272
387
427
399
335
233
191
221
310
412
416
384
333
264
257
280
329
404
420
384
305
216
200
265
355
424
441
417
345
246
205
232
300
409
448
419
341
241
218
239
314
414
440
408
333
235
172
171
229
306
347
362
320
206
157
165
191
247
261
194
100
53
29
16
19
71
97
71
35
18
10
6
82
248
389
500
596
741
1023
1023
1023
1023
1023
1023
1023
1023
1023
1023
1023
1023
1023
1023
1023
1023
1023
1023
1023
1023
1023
1023
1023
1023
1023
1023
1023
1023
1023
1023
1023
1023
1023
1023
1023
1023
1023
1023
1023
1023
1023
1023
1023
1023
1023
1023
1023
1023
1023
1023
1023
1023
1023
1023
1023
1023
1023
1023
1023
1023
1023
1023
1023
1023
1023
1023
1023
1023
1023
1023
1023
1023
1023
1023
1023
1023
1023
1023
1023
1023
1023
1023
1023
1023
1023
1023
1023
1023
1023
1023
1023
1023
1023
1023
1023
1023
1023
1023
1023
1023
1023
1023
1023
1023
1023
1023
1023
1023
1023
1023
1023
1023
1023
1023
1023
1023
1023
1023
1023
1023
1023
1023
1023
1023
1023
1023
1023
1023
1023
1023
1023
1023
1023
1023
1023
1023
1023
1023
1023
1023
1023
1023
1023
1023
1023
1023
1023
1023
1023
696
523
858
1023
1023
1023
1023
676
358
194
407
916
1023
1023
830
432
229
123
149
547
903
931
521
271
143
77
45
277
589
604
311
161
85
45
25
101
343
342
172
88
46
25
14
17
160
153
76
39
20
11
6
4
40
36
18
9
5
3
2
2
1
1
1
1
1
1
1
1
1
1
1
1
1
1
1
1
1
1
1
1
1
1
1
1
1
1
1
1
1
1
1
1
1
1
1
1
1
1
1
1
1
1
1
1
1
1
1
1
1
1
1
1
1
1
1
1
1
0
1
1
1
1
1
1
1
1
1
1
1
1
1
1
1
1
1
1
1
1
1
1
1
1
1
0
1
1
0
1
1
1
1
1
0
1
1
1
1
1
1
1
1
1
0
1
1
1
0
1
1
1
1
1
1
1
1
1
1
1
1
1
1
1
1
1
1
1
1
1
0
1
1
1
1
1
1
1
1
0
1
0
1
1
1
1
1
0
1
1
1
1
0
1
1
1
1
1
0
1
1
1
1
1
1
0
1
1
1
1
12
6
3
2
1
1
1
1
38
18
9
5
3
2
1
4
64
32
16
8
4
2
2
14
95
48
24
12
6
4
2
24
118
60
30
15
8
4
3
42
151
78
39
20
10
6
3
62
183
96
48
25
13
7
4
85
216
116
58
30
15
8
5
114
255
139
70
36
19
10
5
148
296
161
82
42
22
12
8
180
333
183
93
48
25
13
15
216
371
206
105
54
28
15
25
253
411
230
117
61
32
17
39
291
450
253
129
67
35
19
54
326
485
274
140
73
38
20
70
357
514
290
149
77
41
22
86
386
537
302
155
80
42
23
99
408
556
312
160
83
44
23
118
438
581
326
167
87
46
24
147
483
625
353
182
95
50
27
176
527
666
377
194
101
54
29
201
558
689
389
201
105
56
30
220
580
703
396
204
107
56
30
241
607
727
409
211
111
59
32
274
649
761
430
222
116
62
36
307
686
790
447
231
121
64
41
332
713
807
455
235
124
65
46
355
736
822
462
239
126
67
51
376
759
837
469
243
128
68
57
396
778
848
474
245
129
68
63
414
796
857
477
247
130
69
71
434
816
869
483
250
132
70
82
464
848
895
499
259
137
72
100
505
892
931
521
271
143
76
124
551
937
965
542
282
148
79
145
588
972
989
555
289
152
81
167
625
1008
1015
570
296
156
83
186
655
1023
1023
579
301
159
85
196
667
1023
1023
575
300
158
84
214
695
1023
1023
589
307
162
86
236
726
1023
1023
599
312
165
90
448
1023
1023
1023
539
284
151
120
627
1023
1023
951
490
259
138
100
573
1023
1023
885
457
241
129
89
537
1023
1023
819
423
223
119
80
506
1016
1023
768
397
209
111
76
503
1009
1023
752
389
205
109
78
513
1015
1023
747
386
204
109
83
534
1023
1023
751
389
205
109
89
550
1023
1023
751
389
205
109
94
568
1023
1023
754
390
206
110
100
585
1023
1023
758
393
207
111
89
542
1023
1023
1023
1023
1023
1023
974
1023
1023
1023
1023
1023
1023
1023
1010
1023
1023
1023
1023
1023
1023
994
984
995
984
945
859
753
669
616
614
638
641
613
520
394
293
234
240
275
290
277
215
142
90
65
89
131
154
150
98
50
27
15
17
51
77
81
45
23
12
7
4
25
49
54
28
14
8
4
3
17
44
52
27
14
7
4
3
31
62
69
37
18
10
5
11
55
92
100
58
29
15
8
28
87
130
137
86
43
22
13
54
119
159
166
117
61
32
36
92
155
192
199
155
103
75
79
132
194
231
237
193
142
115
117
168
226
261
268
227
179
150
150
197
253
288
293
251
203
177
178
226
280
313
317
275
227
201
205
253
307
340
343
299
249
222
225
276
333
366
369
326
279
253
257
305
358
389
392
348
302
277
281
328
380
412
414
372
327
302
305
353
404
433
434
391
345
319
324
374
426
456
456
410
362
337
342
391
442
474
473
427
380
354
358
409
462
492
489
443
397
371
379
430
481
510
506
458
412
387
395
445
495
525
521
473
425
400
410
462
513
543
538
489
441
416
424
475
525
554
548
498
452
428
437
488
537
565
559
510
466
443
453
505
554
579
570
520
474
450
461
514
563
589
579
528
481
457
467
520
569
597
586
532
485
462
474
529
579
605
594
541
494
470
483
538
587
612
600
548
503
479
492
547
593
616
602
549
504
482
498
553
600
624
609
555
511
489
505
561
608
631
615
562
518
495
512
566
613
638
620
564
520
498
516
572
619
642
623
569
524
503
523
579
626
649
631
575
530
508
528
583
629
652
633
578
535
514
536
591
636
657
637
581
538
517
540
598
647
671
654
598
553
532
555
611
655
676
653
597
553
534
558
614
658
677
652
595
551
530
553
608
652
673
648
592
550
531
557
615
658
677
651
594
553
535
561
618
661
680
654
599
558
542
569
625
668
686
660
604
562
545
573
629
671
689
662
605
565
551
583
644
694
726
721
685
663
667
726
818
887
934
939
914
902
913
968
1023
1023
1023
1023
1023
1023
1023
1023
1023
1023
1023
1023
1023
1023
1023
1023
1023
1023
1023
1023
1023
1023
1023
1023
1023
1023
1023
1023
1023
1023
1023
1023
1023
1023
1023
1023
1023
1023
1023
1023
1023
1023
1023
1023
1023
1023
1023
1023
1023
1023
1023
1023
1023
1023
1023
1023
1023
1023
1023
1023
1023
1023
1023
1023
1023
1023
1023
1023
1023
1023
1023
1023
1023
1023
1023
1023
1023
1023
1023
1023
1023
1023
1023
1023
1023
1023
1023
1023
1023
1023
1023
1023
1023
1023
1023
1023
1023
1023
1023
1023
1023
1023
1023
1023
1023
1023
1023
1023
1023
1023
1023
1023
1023
1023
1023
1023
1023
1023
1023
1023
1023
1023
1023
1023
1023
1023
1023
1023
1023
1023
1023
1023
1023
1023
1014
1023
1023
1023
1023
1023
1016
977
964
1000
1023
1023
1023
1023
970
935
928
966
1015
1023
1023
994
938
904
897
937
986
1015
1014
964
905
870
863
904
953
979
976
926
868
831
824
866
917
947
944
894
838
804
798
839
887
916
915
864
809
776
770
811
856
881
877
824
768
735
730
773
821
850
848
799
745
714
711
755
805
834
834
785
734
705
705
749
797
823
818
768
715
684
683
727
774
800
797
746
695
666
668
713
759
786
780
728
674
642
641
686
732
756
749
694
640
609
608
651
695
717
706
649
592
557
552
590
629
645
627
567
511
476
469
504
537
546
521
453
388
339
320
343
364
361
323
244
169
114
92
112
136
137
105
55
30
17
10
6
4
3
2
2
1
1
1
1
1
1
1
1
1
1
1
1
1
1
1
1
1
1
1
1
1
1
1
1
1
1
1
1
1
1
1
1
1
1
1
1
1
1
1
1
1
1
1
1
1
1
1
1
1
1
1
1
1
1
1
1
1
1
1
1
9
28
21
10
5
3
2
6
34
60
50
25
13
7
4
25
65
90
77
39
20
10
11
54
99
125
113
66
33
17
32
89
137
163
149
100
62
46
69
128
178
204
190
143
106
90
113
170
216
240
225
176
139
124
147
201
244
266
246
194
154
135
157
209
251
271
249
196
154
134
154
206
247
265
239
183
139
118
139
191
229
244
220
162
116
95
116
167
205
221
194
139
97
78
100
153
193
211
188
136
97
83
112
173
221
247
228
179
144
132
163
227
308
494
779
1023
1023
1023
1023
1023
1023
1023
1023
1023
1023
1023
1023
1023
1023
1023
1023
1023
1023
1023
1023
1023
1023
1023
1023
1023
1023
1023
1023
1023
1023
1023
1023
1023
1023
1023
1023
1023
1023
1023
1023
1023
1023
1023
1023
1023
1023
1023
1023
726
392
211
114
63
35
20
12
7
5
3
2
2
2
1
1
1
1
1
1
1
1
1
1
1
1
1
1
1
1
1
1
1
1
1
1
1
1
1
1
1
1
1
1
1
1
1
1
1
1
1
1
1
1
1
1
1
1
1
1
1
1
1
1
1
1
1
1
1
1
1
1
1
1
1
1
1
1
1
1
1
1
1
1
1
1
1
1
0
1
1
1
0
1
1
1
1
1
1
1
1
1
1
1
0
1
1
1
1
1
1
1
1
1
1
1
1
0
1
1
1
1
1
1
1
1
1
1
1
0
1
1
1
1
1
1
0
1
1
1
1
1
1
1
1
1
0
1
1
0
1
0
1
1
1
1
1
1
1
1
1
1
1
1
0
1
1
1
1
1
1
1
1
1
1
1
1
1
1
1
1
1
0
1
343
991
1023
1023
1023
1023
1023
1023
1023
1023
1023
1023
1023
1023
1023
1023
1023
855
452
242
131
71
39
22
13
8
5
3
2
2
2
1
1
1
1
1
1
1
1
1
1
1
1
1
1
1
1
1
1
1
1
1
1
1
1
1
1
1
1
1
1
1
1
1
1
1
1
1
1
1
1
1
1
1
1
1
1
1
1
1
0
1
1
0
1
1
0
1
1
1
1
1
1
1
0
1
1
1
1
1
1
1
1
1
1
7
42
90
142
200
246
301
371
417
447
451
441
439
453
465
481
495
515
535
544
546
562
576
593
630
679
707
715
720
741
760
783
823
862
917
985
1014
1019
1023
1023
1023
1023
1023
1023
1023
1023
1023
1023
1023
1023
1023
1023
1023
1023
1023
1023
1023
1023
1023
1023
1023
1023
1023
1023
1023
1023
1023
1023
1023
1023
1023
1023
1023
1023
1023
1023
1023
1023
1023
1023
1023
1023
1023
1023
1023
1023
1023
1023
1023
1023
1023
1023
1023
1023
1023
1023
1023
1023
1023
1023
1023
1023
1023
1023
1023
1023
1023
1023
1023
1023
1023
1023
1023
1023
1023
1023
1023
1023
1023
1023
1023
1023
1023
1023
1023
1023
1023
1023
1023
1023
1023
1023
1023
1023
1023
1023
1023
1023
1023
1023
1023
1023
1023
1023
1023
1023
1023
1023
1023
1023
1023
1023
1023
1023
1023
1023
1023
1023
1023
1023
1023
1023
1023
1023
1023
1023
1023
1023
1023
1023
1023
1023
1023
1023
1023
1023
1023
1023
1023
1023
1023
1023
1023
1023
1023
1023
1023
1023
1023
1023
1023
1023
1023
1023
1023
1023
1023
1023
1023
1023
1023
1023
1023
1023
1023
1023
1023
1023
1023
1023
1023
1023
1023
1023
1023
1023
1023
1023
1023
1023
1023
1023
1023
1023
1023
1023
1023
1023
1023
1023
1023
1023
1023
1023
1023
1023
1023
1023
1023
1023
1023
1023
1023
1023
1023
1023
1023
1023
1023
1023
1023
1023
1023
1023
1023
1023
1023
1023
1023
1023
1023
1023
1023
1023
1023
1023
1023
1023
1023
1023
1023
1023
1023
1023
1023
1023
1023
1023
1023
1023
1023
1023
1023
1023
1023
1023
1023
1023
1023
1023
1023
1023
1023
1023
1023
1023
1023
1023
1023
1023
1023
1023
1023
1023
1023
1023
1023
1023
1023
968
874
803
732
676
622
548
437
286
155
84
47
26
15
9
6
4
3
2
2
2
1
1
1
1
1
1
1
1
1
1
1
1
1
1
1
1
1
1
1
1
1
1
1
1
1
1
1
1
1
1
1
1
1
1
1
1
1
1
1
1
1
1
1
1
15
67
106
128
157
190
229
270
299
356
424
462
485
500
492
496
531
572
588
591
585
596
627
663
654
630
614
589
544
498
462
434
422
422
430
450
480
485
483
471
462
468
512
534
527
542
585
624
649
669
684
690
697
709
717
721
726
749
765
772
786
814
843
872
877
886
908
924
944
945
943
964
972
974
978
974
964
964
976
997
1001
981
966
974
997
1023
1023
1023
1023
1023
1023
1023
1023
1023
1023
1023
1023
1023
1023
1023
1023
1023
1023
1023
1023
1023
1023
1023
1023
1023
1023
1023
1023
1023
1023
1023
1023
1023
1023
1023
1023
1023
1023
1023
1023
1023
1023
1023
1023
1023
1023
1023
1023
1023
1023
1023
1023
1023
1023
1023
1023
1023
1023
1023
1023
1023
1023
1023
1023
1023
1023
1023
1023
1023
1023
1023
1023
1023
1023
1023
1023
1023
1023
1023
1023
1023
1023
1023
1023
1023
1023
1023
1023
1023
1023
1023
1023
1023
1023
1023
1023
1023
1023
1023
1023
1023
1023
1023
1023
1023
1023
1023
1023
1023
1023
1023
1023
1023
1023
1023
1023
1023
1023
1023
1023
1023
1023
1023
1023
1023
1023
1023
1023
1023
1023
1023
1023
1023
1023
1023
1023
1023
1023
1023
1023
1023
1023
1023
1023
1023
1023
1023
1023
1023
1023
1023
1023
1023
1023
1023
1023
1023
1023
1023
1023
1023
1023
1023
1023
1023
1023
1023
1023
1023
1023
1023
1023
1023
1023
1023
1023
1023
1023
1023
1023
1023
1023
1023
1023
1023
1023
1023
1023
1023
1023
1023
1023
1023
1023
1023
1023
1023
1023
1023
1023
1023
1023
1023
1023
1023
1023
1023
1023
1023
1023
1023
1023
1023
1023
1023
1023
1023
1023
1023
1023
1023
1023
1023
1023
1023
1023
1023
1023
1023
1023
1023
1023
1023
1023
1023
1023
1023
1023
1023
1023
1023
1023
1023
1023
1023
1023
1023
1023
1023
1020
1011
1006
1006
1013
1023
1023
1023
1002
999
997
993
990
994
973
970
982
982
997
991
954
942
948
947
945
930
919
924
931
925
906
886
882
878
889
912
920
898
872
854
863
864
875
874
854
836
833
816
796
761
723
707
709
722
731
722
701
671
642
607
584
566
563
538
522
534
552
544
531
525
521
520
512
492
468
448
456
451
440
448
475
475
469
473
477
479
473
472
469
477
491
519
538
540
541
528
531
560
579
582
573
565
573
573
573
571
576
597
600
578
565
562
553
550
568
587
586
578
580
586
582
558
536
528
527
531
537
533
529
530
552
565
544
530
515
496
478
477
485
500
493
495
490
474
478
468
454
441
423
428
432
433
439
441
430
415
408
405
411
415
402
377
372
375
375
374
374
384
389
379
366
358
355
358
362
364
359
352
339
333
325
332
344
354
359
359
348
341
311
300
295
287
285
303
323
337
340
336
334
344
341
337
323
312
316
311
319
318
306
313
319
308
293
274
252
264
302
326
340
339
326
310
318
317
283
251
244
250
259
284
300
304
298
283
273
264
277
280
276
262
245
254
276
280
274
272
276
277
267
237
224
233
247
267
276
281
280
270
262
263
243
213
197
207
217
210
214
217
232
246
248
249
258
250
231
231
236
240
247
273
256
242
241
236
221
220
220
220
227
222
226
232
238
237
236
246
243
240
259
251
248
256
251
250
237
215
221
237
246
246
237
220
217
208
198
194
187
188
196
201
202
193
179
165
155
153
146
155
192
223
225
204
166
136
133
152
171
170
185
221
260
320
361
428
502
559
571
529
438
337
251
186
123
66
36
20
12
7
5
3
6
20
33
49
65
68
88
98
91
78
56
36
38
56
68
69
70
88
116
131
151
152
149
136
120
107
105
99
91
101
126
145
146
142
142
140
137
149
154
150
165
171
163
162
165
152
131
141
153
157
153
135
127
143
162
166
175
183
179
174
175
164
144
151
160
176
191
179
181
194
208
222
218
207
213
204
202
223
244
256
249
226
208
185
190
217
215
223
237
229
220
226
227
215
211
206
203
196
194
188
173
167
175
187
162
125
116
134
137
114
96
96
86
67
61
63
46
24
13
7
4
8
22
27
23
12
17
16
8
5
3
2
2
1
1
1
5
21
16
8
4
3
2
1
1
1
1
2
20
32
24
25
41
53
45
38
33
30
41
51
55
60
63
68
59
53
57
67
83
73
52
45
59
69
69
73
78
77
68
77
113
116
97
94
94
96
111
119
122
119
119
131
122
97
77
76
102
125
127
124
126
123
107
98
104
105
113
96
89
106
115
112
111
112
133
161
158
132
109
97
117
129
130
136
149
159
168
158
146
128
120
108
115
118
113
109
112
126
131
137
144
145
137
135
142
141
139
135
131
139
149
144
153
158
166
146
121
117
125
140
142
135
125
115
124
143
143
125
104
109
127
129
122
126
130
140
143
125
123
136
151
156
138
139
147
143
138
133
131
136
118
103
100
96
110
129
146
163
148
137
141
134
119
116
108
115
137
118
108
120
133
115
101
106
119
119
117
120
128
141
151
156
158
157
146
128
111
96
90
117
144
149
144
146
153
168
174
168
159
147
139
130
128
136
139
138
135
142
161
174
163
173
168
158
143
133
146
166
193
213
202
194
187
186
165
169
186
179
167
165
161
150
150
150
151
157
159
159
155
161
163
153
153
154
157
152
148
147
156
184
245
321
401
485
557
613
647
644
608
543
458
356
244
145
77
41
31
38
47
53
65
72
87
106
137
149
154
153
145
152
161
137
116
126
150
164
179
190
193
192
173
168
174
167
162
166
178
192
206
218
225
231
232
207
209
224
238
251
259
255
252
236
218
214
226
240
248
244
234
236
244
251
257
265
267
263
255
245
253
265
274
268
288
292
280
273
280
294
311
306
302
300
300
307
319
332
343
358
368
368
365
363
369
364
343
359
373
374
371
372
369
365
363
368
366
369
357
350
349
342
345
350
346
342
323
294
278
266
254
246
239
225
212
222
235
221
206
211
206
194
181
177
165
153
150
156
163
154
141
123
102
115
148
174
178
177
182
192
192
172
165
170
164
157
167
190
191
190
192
200
224
232
211
196
197
205
193
180
182
190
212
235
215
210
236
259
261
251
232
228
234
244
247
252
248
241
233
225
227
239
236
241
239
244
242
247
246
256
271
265
258
248
255
273
287
289
266
260
262
262
262
254
250
254
254
261
256
249
244
253
268
270
276
291
292
289
274
279
294
311
309
296
289
290
280
275
271
272
289
294
290
303
299
294
290
287
298
311
324
308
282
276
286
295
299
305
322
326
325
320
312
319
320
334
336
321
316
314
305
308
318
330
344
335
322
303
311
320
301
310
325
319
316
304
309
309
309
320
328
329
308
286
289
308
330
341
346
349
344
347
358
347
327
322
317
317
324
329
339
348
340
331
333
345
344
345
343
345
338
332
341
346
353
352
362
365
358
350
352
354
344
340
361
376
383
375
360
351
351
366
381
386
397
407
412
420
408
384
370
366
370
375
377
385
389
400
413
407
412
413
421
417
413
419
439
457
471
464
450
437
420
417
414
424
425
417
405
399
408
418
432
442
436
403
397
399
389
374
377
396
397
405
405
405
405
414
417
396
393
413
421
425
438
467
525
594
673
743
816
876
883
835
759
693
616
526
424
324
264
254
270
282
289
299
314
330
344
349
367
392
403
408
426
433
414
372
357
369
393
399
384
386
398
415
425
430
437
435
424
414
426
417
404
420
447
459
451
437
426
413
418
445
458
455
446
447
440
429
432
449
464
470
479
481
491
495
493
486
474
467
473
488
517
533
540
548
524
487
482
490
495
509
524
528
541
556
564
560
547
534
537
540
563
581
577
577
568
556
577
589
588
579
574
574
571
575
597
623
634
619
588
556
544
540
532
527
521
521
532
525
509
490
473
464
467
454
437
428
410
393
386
401
397
370
355
352
357
369
379
386
372
350
320
343
377
397
403
397
385
375
382
377
382
377
371
387
406
418
413
402
403
410
414
418
429
426
408
406
423
433
445
452
453
456
456
453
448
444
443
452
457
464
460
461
478
497
519
532
536
535
507
484
468
462
468
465
462
461
467
477
501
503
502
503
498
494
492
486
482
474
478
486
480
482
491
499
499
498
483
476
476
479
497
509
499
492
502
512
507
497
482
473
489
494
502
513
499
488
492
495
495
499
517
526
516
501
494
499
514
505
519
523
520
527
507
489
490
508
515
519
528
519
501
494
492
512
535
561
572
574
564
558
546
537
540
553
561
569
562
556
548
530
520
526
523
525
519
515
538
569
569
558
558
553
534
522
519
517
526
540
545
553
540
531
534
542
550
549
534
526
517
520
516
497
479
478
503
524
531
538
552
557
542
526
517
516
518
516
521
525
518
511
513
516
510
497
492
504
516
526
518
504
498
511
513
513
506
496
484
498
507
497
508
526
530
540
531
528
535
535
527
518
514
505
497
493
499
505
510
509
515
523
534
539
537
523
504
484
489
507
496
475
470
478
488
507
503
489
493
494
479
461
462
478
482
472
462
457
477
509
549
610
681
746
824
884
911
913
886
805
701
588
486
408
343
303
295
300
310
320
332
354
377
392
408
421
425
434
440
434
423
408
400
400
423
444
465
469
460
455
454
460
470
473
463
452
439
437
445
462
474
480
479
485
476
458
461
470
474
476
470
466
458
449
466
492
503
504
505
503
501
495
485
476
471
474
477
500
510
505
495
485
497
516
526
532
531
521
527
540
550
557
568
577
570
570
574
562
553
556
572
584
592
606
616
604
589
585
576
569
568
580
585
595
609
605
595
594
589
589
585
574
552
540
533
538
532
497
472
465
477
466
455
435
409
392
385
384
378
370
358
354
359
360
360
369
374
375
358
347
341
352
370
371
384
392
381
373
366
373
394
398
410
416
407
392
386
389
397
394
398
408
396
417
444
437
435
438
436
440
443
456
460
455
458
456
455
460
467
459
448
461
478
491
495
503
486
472
479
484
480
484
493
500
488
481
482
491
493
479
473
486
495
494
495
502
508
513
512
502
494
486
474
483
509
522
525
517
501
507
525
519
518
526
537
521
495
474
464
467
476
494
510
516
524
531
517
505
501
507
515
513
509
521
531
533
529
525
525
535
539
535
535
521
512
507
499
499
499
515
530
538
540
541
536
525
504
495
496
512
525
527
525
532
549
544
510
494
504
496
491
508
516
523
523
521
522
527
537
537
529
521
509
503
505
512
525
534
535
543
533
522
515
517
522
522
516
498
506
516
518
521
537
537
529
516
512
516
519
513
507
499
493
503
521
532
529
531
517
504
505
524
515
508
507
502
510
521
523
522
516
500
499
512
519
520
512
492
477
484
504
511
510
505
517
521
500
490
488
502
514
518
528
535
534
522
513
524
536
534
536
548
549
547
551
545
537
528
512
525
528
515
509
509
514
510
519
530
534
527
509
501
503
516
529
548
559
537
509
488
478
489
492
488
476
488
527
582
649
730
833
923
962
970
947
892
823
733
623
532
449
390
361
348
355
370
371
391
414
434
447
443
434
446
448
434
423
430
447
458
472
474
459
459
454
462
477
496
507
503
481
457
448
455
461
469
489
514
526
522
515
499
494
502
506
507
506
509
511
507
509
515
531
547
551
521
493
501
512
522
526
532
541
539
528
533
538
540
551
568
561
555
540
539
555
544
541
554
563
563
574
587
592
583
570
565
570
583
595
596
611
636
631
617
597
585
584
596
601
599
600
617
609
594
584
588
577
558
543
516
505
506
505
496
493
479
463
448
434
436
434
433
420
398
391
387
371
348
350
371
380
390
382
351
345
356
359
359
348
354
371
372
363
370
375
370
369
372
374
371
365
357
349
355
370
394
418
431
432
410
387
387
393
400
395
401
398
378
357
362
393
423
436
435
437
443
440
442
447
440
438
437
436
424
425
444
452
456
463
476
474
463
456
442
422
426
445
449
451
447
429
436
459
473
459
459
455
465
473
471
463
464
472
476
489
504
499
487
470
453
448
440
442
452
467
478
484
490
496
489
487
485
486
486
496
501
499
492
496
503
487
480
482
482
481
487
491
495
509
517
504
491
494
495
490
489
492
498
506
509
517
528
526
505
496
505
514
500
490
493
503
517
535
529
513
508
511
513
521
512
502
511
528
563
579
571
552
537
529
530
539
546
553
552
542
536
526
523
535
554
567
568
566
558
545
538
543
545
549
562
555
558
559
548
545
539
539
541
541
536
531
527
531
526
529
533
539
548
548
547
534
520
525
541
550
535
528
544
560
552
534
527
517
509
515
523
526
545
552
552
547
528
509
511
527
539
533
534
535
532
522
526
532
543
546
550
558
552
528
523
546
563
577
585
574
553
538
529
523
527
534
544
547
528
523
542
551
528
508
496
501
512
516
506
512
528
527
519
514
506
509
526
549
580
628
677
723
792
876
944
983
976
910
819
710
597
506
429
369
323
298
312
346
370
373
377
408
433
447
466
492
516
519
519
501
491
493
512
517
511
504
503
511
528
536
538
535
523
525
535
545
555
566
572
571
565
572
591
592
596
596
592
587
569
557
551
567
585
582
580
591
590
583
589
597
596
595
615
615
607
609
616
633
659
688
695
687
672
660
660
660
660
654
674
693
698
705
712
708
697
689
686
694
686
675
671
679
690
702
713
708
679
668
663
645
639
656
677
676
675
666
665
674
681
667
638
616
594
574
569
581
576
563
539
527
516
509
495
489
491
488
492
485
465
451
457
460
459
459
441
421
418
432
449
453
463
467
477
480
468
469
490
517
526
521
507
500
496
506
518
530
537
535
547
563
560
559
579
592
602
605
603
614
622
625
636
642
620
605
617
635
644
646
644
654
682
691
677
658
649
648
647
638
635
630
635
654
669
675
674
670
674
659
629
595
596
610
611
610
604
603
613
586
558
546
541
544
556
545
537
543
552
560
564
546
530
534
541
552
550
549
556
555
541
526
524
517
497
478
462
483
499
505
500
493
492
482
478
470
464
450
446
449
461
477
490
507
507
498
489
475
456
440
428
435
458
469
460
441
429
437
440
442
455
463
432
412
398
401
419
431
426
419
404
395
398
401
415
442
436
416
400
392
394
395
375
375
381
391
402
408
408
401
397
408
415
408
409
413
415
400
383
388
415
426
431
415
404
406
406
411
411
392
379
374
375
379
383
392
397
396
402
400
386
389
393
397
401
408
412
408
409
408
402
402
410
405
387
370
376
392
406
410
405
403
405
409
412
411
404
404
408
404
408
410
402
398
401
419
433
442
439
425
427
422
423
419
422
434
423
415
388
370
371
387
390
388
393
391
393
384
381
386
393
397
395
394
385
401
463
554
630
704
783
849
872
874
839
772
689
585
482
391
310
249
197
191
225
261
286
302
311
321
337
348
352
373
369
350
356
381
392
381
376
380
394
410
420
422
415
412
408
406
421
426
418
405
396
402
413
422
420
414
401
400
422
431
431
448
453
451
448
444
447
460
474
480
477
467
445
437
448
466
468
458
462
468
469
485
498
501
503
519
523
502
485
466
473
509
529
533
529
534
536
529
534
550
562
557
544
532
543
551
561
566
561
564
561
544
531
526
527
546
561
564
567
573
561
535
518
505
488
475
464
464
464
458
433
424
422
401
387
386
382
371
357
348
340
334
327
330
325
310
319
338
337
322
319
312
314
320
330
330
334
327
310
304
322
342
357
372
360
348
345
347
331
344
358
359
362
378
384
372
373
382
390
396
391
383
380
380
376
376
394
409
419
414
414
416
421
431
435
439
447
448
445
438
423
421
416
402
399
398
403
413
424
429
432
438
433
439
439
434
422
426
425
437
442
441
442
433
409
406
427
439
455
460
451
446
453
458
446
434
439
449
457
457
457
462
469
465
462
471
476
481
480
477
462
451
447
459
476
472
464
459
458
465
477
486
482
476
463
457
454
445
453
468
473
472
488
497
499
497
489
488
497
497
483
473
477
497
489
475
480
484
480
479
476
482
491
495
481
470
468
480
486
497
499
495
477
473
474
479
486
491
491
495
500
496
497
490
480
487
500
502
499
495
489
492
500
510
519
522
509
489
484
475
479
489
496
498
480
461
457
473
488
502
511
514
515
510
503
483
481
504
517
509
488
478
476
487
500
514
529
531
507
479
476
492
497
510
518
516
529
541
549
535
511
493
490
494
508
533
531
510
503
501
504
524
532
533
541
536
527
515
503
502
496
487
479
471
478
473
455
456
466
483
476
455
453
472
469
452
458
450
434
436
445
456
476
520
582
663
757
857
932
959
927
849
774
684
593
507
431
374
345
320
287
273
279
328
376
383
385
397
395
392
389
387
387
405
403
412
420
424
424
432
425
412
399
390
385
387
395
389
381
380
378
371
363
358
358
333
322
311
303
299
293
298
299
286
286
301
291
284
279
276
276
288
320
345
346
351
354
355
366
379
397
420
433
432
438
437
444
442
456
470
480
487
511
520
512
512
519
527
539
544
543
548
566
573
575
584
583
594
604
610
618
609
612
605
596
598
598
595
595
581
566
560
548
546
541
511
496
509
524
526
512
493
468
447
442
437
424
411
402
398
386
373
358
353
349
353
348
345
348
341
349
358
370
367
358
346
318
300
308
321
332
356
377
376
371
376
385
386
385
377
370
361
367
391
402
407
400
392
390
400
416
422
412
406
410
408
416
424
422
427
433
438
441
448
454
457
454
457
462
454
446
447
447
450
457
462
464
475
478
478
471
464
465
480
481
466
473
476
467
459
462
473
491
494
487
478
467
448
443
454
472
491
505
501
501
494
487
478
481
491
494
484
497
520
529
519
506
492
481
486
492
510
492
471
471
474
482
496
493
487
487
483
477
482
505
514
504
493
485
484
499
517
521
509
507
526
527
517
512
521
513
506
508
540
543
529
532
542
535
524
526
528
535
530
540
549
549
543
531
524
515
510
516
544
572
580
560
543
538
530
533
549
556
554
551
547
543
542
546
548
566
577
577
573
563
553
550
562
583
581
565
554
548
555
568
578
580
575
568
557
555
554
555
551
544
544
559
569
559
558
578
597
605
597
582
580
582
575
571
588
608
620
622
619
603
584
569
563
579
609
632
626
612
625
640
629
618
605
598
598
603
602
582
563
561
583
604
617
626
624
622
618
624
632
631
608
590
587
593
589
592
606
614
606
604
610
607
600
609
619
637
676
719
785
874
973
1023
1023
1023
1023
1023
952
871
764
666
577
508
465
459
464
474
497
524
547
571
589
597
597
600
622
638
620
605
625
656
671
661
634
633
650
660
652
654
661
656
650
657
647
647
662
665
658
657
665
666
667
658
648
639
637
633
643
669
691
674
638
615
627
652
670
675
663
651
645
650
652
667
671
657
647
639
633
630
636
650
658
648
639
641
636
643
652
650
652
658
671
694
715
703
677
660
657
671
685
700
710
707
694
684
681
685
683
688
693
689
689
678
656
651
645
628
617
607
610
612
620
618
613
585
561
539
512
488
490
496
494
480
480
463
443
431
429
437
454
465
453
431
428
442
450
446
439
435
441
447
451
462
460
457
469
479
476
487
488
473
473
481
465
459
478
499
528
533
523
526
522
524
536
544
550
543
536
534
551
577
586
595
595
597
602
602
602
592
602
624
644
641
635
638
644
620
614
614
626
639
647
636
632
639
645
650
665
657
644
638
642
648
653
657
652
657
659
658
653
648
670
700
712
694
697
697
692
692
687
687
690
695
703
698
700
722
726
731
749
762
762
754
740
735
737
743
745
746
749
759
777
797
819
827
808
782
771
774
778
776
778
790
795
793
790
786
783
786
780
773
774
772
766
754
748
759
772
765
761
769
780
776
760
747
743
751
757
753
763
773
778
773
763
757
757
746
734
712
700
706
715
718
715
711
716
725
718
692
669
661
667
660
649
661
681
680
667
660
654
640
635
635
635
635
630
624
614
606
615
639
644
627
618
609
607
605
604
609
595
570
552
545
544
553
566
573
572
569
560
562
562
562
563
562
562
576
576
559
560
558
541
530
518
512
506
495
485
481
488
497
506
497
474
465
465
466
460
463
451
434
417
412
412
412
411
410
410
431
427
402
383
374
386
402
421
438
477
551
625
704
769
817
839
816
741
648
556
459
361
277
218
190
163
158
175
202
236
267
288
282
261
273
298
314
322
321
313
302
294
289
286
290
305
313
314
317
317
321
308
297
300
317
320
309
310
317
316
317
329
325
316
307
309
321
345
345
336
328
325
321
319
324
325
327
331
330
326
326
334
357
368
371
370
366
369
376
367
361
361
368
372
382
389
394
394
393
396
398
415
420
417
421
434
437
438
443
439
440
447
446
442
446
460
457
464
458
449
443
446
449
444
441
433
425
430
434
426
411
398
392
386
373
352
337
334
315
298
298
288
271
261
264
264
250
242
245
254
253
253
248
238
235
230
235
241
235
237
245
260
272
267
263
267
255
249
262
260
266
280
288
288
297
302
308
309
306
302
299
307
314
317
310
307
323
348
362
375
369
354
352
354
364
367
367
374
376
371
369
366
362
361
360
366
386
406
409
396
390
391
383
387
392
385
377
387
408
413
408
405
408
417
426
434
425
409
408
416
413
403
407
422
429
423
422
422
430
439
433
423
423
419
422
427
415
417
417
430
446
459
462
459
451
440
422
419
445
462
472
459
447
446
459
470
474
469
470
472
467
464
461
459
469
479
487
483
473
479
484
485
489
480
479
475
476
473
468
465
472
481
487
480
482
492
506
526
523
510
502
488
484
472
466
463
467
478
483
486
485
491
492
487
480
492
509
512
508
496
485
488
489
487
498
514
511
505
493
487
492
492
496
495
497
517
521
504
492
499
518
510
499
502
506
507
517
533
533
517
502
506
516
524
518
512
518
524
530
531
529
523
520
521
526
532
536
542
540
530
527
541
560
573
575
547
514
511
530
540
543
541
530
534
543
548
555
559
547
546
550
548
537
532
529
525
523
516
516
526
543
562
559
531
510
503
490
481
483
494
516
532
540
564
617
696
780
862
934
973
977
941
879
799
699
586
486
422
386
367
362
366
373
385
403
420
440
461
489
497
468
446
455
474
480
476
467
444
436
440
453
470
474
478
485
480
466
457
463
467
466
465
469
469
472
485
491
487
490
484
491
495
490
493
493
499
516
521
513
505
504
506
515
526
533
523
519
527
535
545
541
529
521
531
542
552
564
565
570
568
566
559
558
564
568
574
586
591
599
616
620
625
621
599
593
602
617
625
627
628
622
628
631
626
637
624
616
625
628
624
615
604
594
582
576
570
553
555
546
527
527
516
499
491
479
466
461
459
432
406
387
393
402
392
381
371
366
370
380
376
377
358
354
368
386
378
371
369
371
383
385
385
399
418
420
410
399
388
384
390
402
418
421
417
422
424
426
428
430
434
438
446
452
455
461
461
469
472
467
457
451
446
443
455
474
478
478
489
481
473
477
471
460
457
457
462
465
468
469
475
483
490
494
489
479
471
477
482
483
481
471
468
466
476
490
497
503
504
480
445
430
439
454
473
483
488
492
491
501
512
513
504
499
490
495
493
481
474
472
479
479
476
481
488
491
502
507
503
495
487
486
488
482
476
483
487
476
476
482
481
484
499
512
518
527
518
500
496
495
492
492
505
512
511
518
529
536
535
533
529
532
542
552
541
524
521
531
542
544
541
534
524
511
509
514
516
517
513
512
530
535
537
535
526
515
511
514
513
515
523
526
534
532
521
510
504
504
509
516
526
531
526
527
519
512
502
500
507
518
516
527
529
520
518
519
532
551
543
521
506
491
512
531
526
523
514
507
514
529
533
543
531
519
521
529
519
514
522
525
534
534
539
544
537
516
497
501
516
529
538
542
529
516
523
535
529
523
528
528
521
516
518
538
554
542
530
536
552
557
550
531
511
490
483
497
514
520
505
494
496
493
482
490
498
503
496
483
482
484
480
478
488
520
577
644
721
817
910
975
983
948
882
800
713
620
534
442
373
331
330
318
317
330
346
364
381
403
428
452
460
445
423
418
434
442
437
436
454
459
458
460
463
468
464
464
470
484
494
502
506
496
490
484
483
493
505
510
489
482
492
499
507
511
512
507
497
491
495
499
512
523
514
507
499
491
499
512
532
527
525
525
522
535
552
570
573
564
563
566
564
569
578
579
580
582
580
578
576
581
591
600
626
640
628
605
599
601
603
610
627
634
640
638
625
624
623
610
596
596
596
598
589
572
564
558
559
562
552
532
513
499
489
472
461
462
463
453
445
450
462
435
391
376
364
362
366
370
383
398
401
405
410
406
404
402
410
416
427
423
418
418
434
446
453
459
479
487
478
462
467
483
492
507
530
544
546
524
514
527
534
530
534
543
561
550
538
552
574
590
601
616
628
626
612
607
616
633
652
656
662
674
675
652
637
641
636
641
649
650
655
662
665
669
675
673
650
639
639
634
648
677
672
665
669
676
695
695
681
679
686
684
679
675
675
693
719
737
745
731
717
718
719
718
715
713
718
721
716
720
731
741
756
767
765
747
731
717
708
710
717
734
743
747
745
734
725
721
730
740
737
733
731
713
695
696
708
723
714
710
725
740
734
719
715
724
727
735
738
731
713
697
694
703
710
717
719
719
721
731
741
734
718
710
714
707
697
698
699
718
727
723
714
696
691
703
707
701
696
702
705
694
695
701
698
691
692
700
708
697
680
689
684
672
665
660
658
651
653
657
650
647
649
653
660
664
672
680
677
661
646
634
625
608
611
614
620
623
617
609
595
588
587
590
596
608
612
613
604
587
575
575
589
593
570
558
557
552
548
546
546
557
553
545
540
536
522
509
501
496
490
492
495
486
473
470
463
465
464
466
455
436
422
422
426
429
419
410
397
384
384
381
387
397
395
391
395
390
381
384
400
436
487
549
610
671
740
800
829
796
702
595
492
401
320
245
193
160
158
177
199
211
222
235
250
283
300
303
308
304
300
300
301
302
306
312
310
309
311
311
322
332
336
338
337
336
343
340
335
325
328
325
324
334
338
318
318
334
355
377
388
376
357
350
347
336
340
334
339
352
362
359
358
369
375
370
370
379
388
382
378
385
384
389
389
384
382
391
404
425
434
441
435
432
434
436
445
442
436
440
445
457
462
457
455
456
460
461
477
482
476
470
469
476
497
489
464
447
436
417
407
406
404
404
405
408
405
404
393
378
359
335
311
293
284
267
259
257
252
251
254
258
254
254
256
250
241
231
230
229
226
225
229
237
237
232
224
216
232
265
288
306
298
287
288
278
272
270
285
286
277
284
294
304
301
301
311
313
302
306
323
335
333
339
349
354
358
361
357
349
349
354
371
395
401
393
377
372
374
372
371
380
381
383
383
385
394
387
383
382
375
378
383
397
407
400
394
394
405
421
421
412
418
429
426
407
394
405
415
407
400
409
410
415
413
411
414
429
434
431
439
444
442
446
436
420
418
421
433
440
444
438
428
425
436
447
462
476
485
477
460
443
435
440
453
461
467
457
436
426
436
442
443
452
466
477
481
469
467
469
469
466
464
457
456
450
446
451
459
467
473
475
481
485
488
484
487
475
456
442
442
446
446
439
428
423
429
443
461
468
469
455
457
464
461
458
471
481
476
474
471
475
472
462
461
468
473
471
470
454
449
453
457
458
465
470
473
482
477
474
480
477
469
464
477
483
483
485
469
467
480
483
483
473
469
471
477
482
472
472
488
494
490
486
476
472
480
481
483
490
494
495
495
494
491
483
482
485
490
497
503
504
507
528
529
515
505
503
510
517
520
512
514
518
528
534
528
516
510
514
529
539
543
544
541
526
519
530
537
524
516
510
489
486
494
500
498
500
503
505
499
497
491
483
493
506
505
511
507
507
526
549
584
646
714
798
887
954
981
974
922
847
751
647
556
468
389
340
331
342
357
372
388
406
423
443
464
469
464
459
458
465
472
471
470
481
481
466
462
466
471
480
495
511
509
489
473
475
485
493
500
498
501
504
500
497
504
511
512
516
521
517
511
509
505
510
519
526
521
516
519
518
518
526
525
518
522
539
541
538
538
550
563
558
550
544
535
533
532
539
554
571
584
600
600
596
590
585
594
601
603
597
595
614
635
640
638
633
632
621
606
609
610
615
622
627
631
625
613
607
602
594
587
574
558
538
526
517
512
512
507
494
489
482
467
453
444
440
444
444
440
427
407
394
395
399
398
390
387
386
386
380
375
379
395
409
410
392
375
379
380
386
398
406
411
412
411
404
408
429
445
449
446
455
457
453
448
445
444
454
448
459
473
479
483
490
497
491
474
469
466
471
480
491
502
505
514
505
487
486
475
477
489
500
504
507
510
517
509
501
496
494
495
494
495
499
510
521
529
526
509
504
507
504
511
523
531
520
511
496
491
497
510
522
522
520
517
517
524
527
528
533
546
543
534
523
492
489
498
513
529
533
530
526
536
543
544
521
514
518
513
507
507
502
494
496
512
525
541
540
531
532
534
526
523
515
509
508
502
500
517
524
509
503
508
519
524
522
522
508
500
500
505
513
513
508
501
503
504
513
526
529
536
540
534
534
541
537
528
512
502
491
478
488
508
516
510
507
514
524
542
545
539
529
536
524
514
527
540
538
528
524
527
528
533
542
558
570
574
563
552
531
530
543
556
554
556
568
583
573
557
541
541
548
548
543
539
528
520
518
526
531
534
543
553
555
560
558
561
548
549
547
541
538
538
546
564
573
554
530
523
510
506
522
543
553
567
567
553
541
530
522
530
542
544
542
546
551
558
555
547
547
561
574
568
561
566
571
565
560
557
548
545
550
559
580
590
576
563
554
549
542
526
520
527
534
527
527
532
526
520
536
554
550
540
537
534
534
527
514
513
528
529
515
517
536
563
618
688
772
858
935
982
980
949
886
816
719
611
531
453
394
359
342
339
354
377
396
416
438
475
506
514
505
496
492
490
482
486
483
481
492
500
497
491
483
487
492
491
495
508
518
527
532
534
522
515
518
524
528
535
527
519
530
539
545
553
550
536
526
521
527
530
528
526
540
549
546
544
552
556
552
555
560
554
555
554
556
561
573
578
597
589
574
570
588
608
615
618
615
611
611
613
618
627
634
635
641
646
634
635
645
650
661
649
639
632
630
630
627
624
623
624
642
644
623
601
585
588
591
573
551
534
531
527
521
522
524
505
482
456
435
434
433
433
439
447
442
422
403
396
402
413
416
415
404
402
402
413
421
430
438
434
432
434
436
450
467
464
466
457
445
434
433
451
482
509
529
534
530
520
520
529
541
558
572
579
593
602
607
607
602
604
605
613
618
624
629
641
657
669
666
650
649
659
655
643
648
663
669
664
666
662
656
666
665
668
664
648
642
646
667
680
679
676
675
673
675
680
675
672
674
681
688
695
682
658
648
651
651
648
653
650
650
650
650
666
686
685
675
671
671
669
660
663
665
674
694
692
687
687
690
701
705
695
689
688
690
690
692
698
706
695
687
692
697
696
701
700
696
699
715
728
731
718
711
706
708
720
726
723
725
722
718
717
709
706
719
718
715
719
713
714
717
708
701
682
679
683
679
692
700
694
689
678
677
689
689
684
679
684
682
681
688
688
678
676
663
652
653
652
642
635
638
647
635
633
638
636
617
605
604
606
611
617
609
608
605
594
579
570
564
570
563
560
561
559
546
546
553
550
547
552
562
549
529
515
508
515
512
500
493
493
489
472
471
485
496
513
523
524
515
500
494
493
487
480
482
475
466
457
458
470
475
475
472
466
451
449
450
447
441
446
462
466
467
466
453
448
454
446
433
431
432
436
424
414
397
383
386
395
404
408
409
408
406
391
378
369
359
360
381
415
472
527
598
661
727
786
813
803
760
689
587
484
387
297
244
223
209
198
200
211
234
257
276
292
309
309
304
308
309
307
318
326
329
343
348
338
340
352
355
356
351
356
366
353
351
367
384
378
372
367
352
345
346
355
364
379
384
380
383
384
383
385
382
388
393
396
404
406
395
385
380
390
401
419
435
430
410
404
408
419
428
427
420
422
437
457
455
456
466
464
461
460
459
463
472
483
488
484
476
484
493
487
487
502
518
516
516
520
525
530
520
502
493
501
503
500
501
494
484
478
474
466
448
441
448
435
418
415
399
389
379
362
351
342
323
313
308
305
296
299
317
317
294
280
285
285
288
293
293
291
298
309
314
314
307
294
294
298
303
306
313
316
327
323
329
335
336
339
335
319
315
324
335
346
360
369
375
382
376
370
377
381
382
385
389
401
402
401
405
413
423
429
437
423
406
395
387
372
369
379
380
388
392
391
409
425
431
432
425
414
417
424
415
414
431
442
442
439
436
431
428
424
428
435
438
444
450
450
437
427
434
442
443
428
427
431
427
423
427
433
434
437
438
439
452
450
453
460
465
467
453
441
432
434
442
452
460
459
446
447
459
462
454
468
481
477
476
467
456
447
442
449
456
463
461
460
461
459
466
461
447
441
451
460
470
473
473
478
484
474
464
473
486
485
474
472
478
475
471
469
475
483
478
478
479
470
456
450
458
480
499
494
470
466
486
501
500
494
491
489
492
494
494
486
488
491
494
491
489
481
477
477
481
485
488
501
508
504
490
479
475
486
499
502
506
512
514
514
512
510
501
495
494
492
489
478
476
480
487
494
496
503
505
505
506
515
511
494
483
483
488
489
487
483
500
516
529
528
518
508
498
491
491
501
503
507
508
524
523
498
490
487
498
507
511
518
514
515
526
533
540
531
507
492
490
503
515
526
540
547
536
524
513
502
508
531
537
529
525
519
513
496
489
490
497
495
469
453
464
482
499
497
498
494
482
476
486
511
541
578
631
708
795
873
931
961
962
913
832
743
637
542
458
384
348
334
338
355
380
399
405
412
418
421
421
434
441
450
451
457
462
457
440
435
444
451
462
476
478
481
487
493
495
497
499
501
508
515
511
510
507
497
489
482
481
479
487
494
499
503
513
512
504
514
523
527
527
528
530
537
547
543
545
544
547
542
540
539
542
552
558
563
556
561
568
572
578
577
578
587
594
601
609
606
598
592
584
573
588
606
608
620
618
607
601
598
603
613
616
628
637
635
621
608
598
588
598
615
608
593
581
568
560
563
556
540
525
505
484
481
489
485
478
465
452
444
435
415
402
390
385
389
390
381
373
376
384
402
406
402
397
390
391
393
397
396
390
390
398
414
419
414
413
415
425
432
437
436
439
432
440
453
453
447
450
453
453
458
456
447
450
471
489
491
487
479
475
479
484
478
478
473
475
476
478
483
492
516
526
512
494
482
486
497
499
501
515
516
517
505
498
506
525
532
527
510
500
496
500
496
502
502
487
492
515
516
507
503
494
489
489
491
501
502
499
514
522
521
528
530
526
519
524
528
519
507
502
503
510
509
512
515
515
517
508
509
516
518
514
503
504
510
520
521
522
517
523
530
519
501
496
495
496
496
497
508
522
528
522
506
506
511
516
515
506
503
513
514
513
519
520
526
539
542
541
542
520
486
479
494
510
519
522
528
532
527
517
513
515
523
537
545
548
539
531
528
524
513
509
515
523
529
531
540
537
538
534
528
525
521
523
524
527
531
532
530
527
528
527
536
543
547
534
523
515
509
515
522
529
536
537
533
528
522
528
528
533
535
530
522
516
514
515
531
537
538
538
536
525
508
514
526
538
555
554
557
552
544
528
512
501
510
518
525
527
535
538
530
525
521
526
532
535
529
530
531
527
538
540
530
529
528
536
536
537
542
546
552
566
566
555
542
546
552
563
566
563
549
546
540
536
538
547
555
560
558
553
557
568
575
568
566
558
541
531
532
530
535
539
534
524
518
512
503
509
522
523
528
540
550
541
540
520
510
518
544
576
617
686
773
863
939
986
994
964
899
818
721
626
540
457
393
356
346
355
354
363
391
414
446
472
483
489
489
487
500
502
494
502
505
509
517
518
516
518
529
539
527
515
525
533
535
541
543
538
536
533
531
530
542
545
541
540
548
555
560
567
567
565
570
567
570
577
585
578
570
570
569
565
553
542
541
550
573
581
584
591
591
586
582
582
579
568
572
588
596
604
606
593
587
595
614
617
622
628
630
635
639
628
627
631
627
619
627
636
633
623
609
597
598
605
607
609
622
620
610
602
595
588
581
578
569
557
550
529
527
521
518
509
495
479
464
448
433
414
409
414
413
404
395
386
389
393
389
394
400
399
388
392
379
380
404
417
420
425
422
426
418
415
419
427
431
431
427
427
431
439
442
440
441
431
432
433
437
447
449
447
451
449
454
464
468
465
468
478
486
490
485
482
472
468
472
484
495
496
505
499
482
478
483
494
505
504
488
478
467
476
481
487
494
502
502
498
499
505
503
492
493
503
496
493
496
502
499
494
499
497
491
493
495
499
505
513
512
503
496
496
500
495
501
515
520
519
523
516
508
514
522
527
517
508
499
494
506
520
509
500
506
520
532
540
523
504
503
505
509
510
516
517
506
505
509
510
506
506
515
527
531
525
519
513
515
522
532
528
513
515
513
506
512
516
512
519
529
528
526
529
517
509
514
525
530
525
519
528
534
526
526
529
511
502
505
512
524
537
535
520
500
503
512
515
526
535
543
546
536
530
521
510
505
508
519
518
521
518
521
537
550
540
531
527
538
561
559
545
527
495
483
492
508
527
539
544
550
545
532
529
532
530
529
527
533
537
542
543
546
538
534
538
543
542
545
550
561
566
567
567
569
561
543
525
503
502
517
548
570
556
548
550
546
547
562
565
554
545
544
552
559
564
576
574
560
555
555
554
561
560
559
573
591
588
578
559
556
556
544
541
536
528
527
531
540
539
535
535
545
551
550
529
513
507
511
512
511
517
527
537
560
598
660
726
799
882
942
965
958
909
830
739
642
554
473
399
354
335
331
343
369
377
395
416
436
452
466
481
485
482
483
474
479
490
504
509
505
496
485
491
499
495
484
489
499
503
508
515
510
508
505
513
522
524
528
532
523
525
530
537
537
532
530
522
515
513
526
535
534
542
544
535
538
545
545
547
549
547
552
556
563
567
566
574
580
584
592
600
612
615
607
606
602
604
602
589
585
591
588
586
595
606
613
624
631
639
637
634
631
636
622
616
619
614
605
599
607
603
595
599
601
603
604
597
575
557
544
528
508
504
505
494
484
479
471
455
436
418
407
404
410
411
391
383
390
385
381
387
398
395
380
373
367
368
371
386
390
386
391
397
398
385
386
394
397
402
403
398
404
406
413
419
432
440
437
437
435
425
431
435
433
436
442
449
457
462
455
456
468
473
464
457
459
474
477
476
473
475
473
463
463
469
469
461
462
461
462
466
474
475
483
482
469
451
444
452
464
472
481
468
460
467
486
478
448
442
457
473
487
490
475
469
471
463
463
466
465
449
439
455
478
492
504
503
492
484
477
478
480
480
476
472
477
483
492
492
501
511
503
490
484
481
482
476
476
485
498
495
501
499
501
498
485
478
483
486
490
491
488
485
481
482
485
493
504
505
509
506
508
512
508
496
492
489
490
499
500
492
491
500
514
491
473
473
478
479
470
466
472
485
477
478
489
506
515
503
493
489
480
480
487
497
498
487
481
481
478
480
486
493
494
502
499
491
488
495
503
514
522
523
517
505
490
493
500
493
491
501
512
516
505
507
504
501
509
512
507
512
508
507
512
528
528
512
496
494
490
496
508
519
520
520
523
510
500
503
497
497
507
525
530
509
490
493
501
500
498
504
504
506
517
525
526
530
542
549
548
544
536
526
525
530
510
500
504
507
516
530
538
546
545
536
526
515
514
521
522
522
531
543
550
555
547
531
531
554
554
547
543
526
511
489
481
495
490
486
496
509
510
516
521
515
506
496
493
493
504
526
534
550
590
637
702
765
835
896
945
986
987
908
813
711
603
508
403
340
333
343
363
378
384
394
405
423
441
466
493
520
518
510
496
484
468
482
528
550
556
555
536
528
531
548
550
534
516
518
540
560
601
619
601
573
591
640
670
677
670
652
650
668
690
695
679
660
655
662
666
669
674
687
697
705
709
708
701
681
665
679
702
710
703
696
697
712
730
743
749
735
715
715
718
719
704
703
720
730
731
695
672
684
704
717
708
696
686
675
663
653
668
684
683
674
669
669
663
655
646
653
657
657
660
658
643
614
581
558
534
515
502
477
463
451
416
386
375
382
385
384
376
354
334
327
326
325
319
302
291
297
298
290
293
302
303
298
293
281
276
293
314
315
301
299
307
321
314
309
300
304
315
326
343
355
358
348
352
365
390
391
384
375
354
351
355
362
380
390
387
381
372
374
396
409
408
407
402
393
402
424
428
422
411
410
413
406
401
402
400
406
414
429
436
436
420
414
441
466
462
442
429
428
448
449
441
444
443
439
447
464
485
488
471
465
453
437
420
423
451
462
470
470
460
463
452
444
465
483
491
491
490
483
467
461
480
497
499
490
478
468
477
498
503
508
503
469
464
467
484
515
530
534
508
482
462
471
464
469
485
506
527
517
503
508
521
527
528
528
529
531
540
550
553
539
527
520
503
502
510
520
537
535
527
516
515
520
526
529
531
519
510
515
524
513
502
500
498
494
496
494
493
505
503
499
503
506
517
517
508
499
494
481
487
495
514
529
514
501
501
512
502
494
476
475
484
493
507
514
501
489
488
502
507
511
518
504
512
520
527
528
519
512
507
523
525
518
514
506
502
504
506
506
503
499
504
516
528
535
538
549
543
532
524
523
525
517
496
478
486
504
520
528
538
557
562
561
549
536
535
519
523
527
534
532
526
529
540
552
554
551
535
529
530
537
542
536
529
532
540
555
552
551
546
540
541
544
541
542
522
499
502
493
486
490
507
534
546
539
533
516
489
480
490
502
493
474
481
498
528
567
606
663
741
825
899
954
975
953
884
781
674
574
490
411
351
333
332
332
344
361
384
409
422
430
438
451
457
460
465
464
473
476
467
458
455
451
459
474
489
493
485
500
507
496
485
487
499
508
504
497
479
472
493
516
519
522
515
510
501
494
495
507
520
524
533
537
527
523
512
517
525
524
518
518
529
540
549
555
562
552
551
566
564
558
557
555
566
570
578
586
582
576
569
568
568
573
582
605
612
610
615
623
630
631
615
606
601
595
590
598
603
601
598
591
581
579
589
584
572
568
569
556
530
521
531
524
506
497
493
492
491
469
445
425
407
395
396
399
401
404
396
398
408
402
385
373
371
365
358
359
375
389
405
402
395
392
389
398
414
420
423
429
423
411
414
422
431
434
426
419
415
417
422
443
464
471
472
478
477
456
468
489
511
517
506
508
519
525
533
544
563
571
572
568
548
536
541
546
554
567
572
571
572
574
568
560
570
573
575
574
577
577
568
571
584
583
551
528
534
557
574
569
572
570
565
559
572
586
584
572
557
551
555
565
562
561
561
558
558
547
548
555
554
560
565
568
573
575
573
569
566
554
558
564
565
565
560
557
562
551
537
528
531
541
552
571
564
556
558
558
552
538
534
534
534
544
550
554
573
570
563
545
496
490
504
520
528
535
531
528
540
543
548
552
556
545
529
510
493
496
513
521
531
536
531
517
512
514
525
528
531
524
525
518
497
490
503
515
524
517
508
509
515
515
512
502
502
516
517
502
494
496
494
497
505
506
501
497
499
498
501
502
501
488
478
483
493
494
494
493
495
501
493
493
499
506
511
523
518
510
505
507
506
493
481
484
479
476
477
480
488
498
504
504
508
509
500
499
499
495
497
493
497
502
510
515
520
529
534
532
529
525
531
534
533
531
532
526
510
497
486
485
492
503
495
492
484
473
470
468
465
462
471
478
478
479
485
489
493
496
514
554
616
697
780
853
911
946
951
898
806
718
606
502
421
343
295
283
290
302
320
332
346
375
392
407
432
450
449
430
411
424
448
463
471
482
482
460
453
457
448
445
458
480
483
478
468
458
457
464
478
487
484
480
486
492
502
504
507
498
468
460
455
468
488
512
521
518
499
483
493
510
524
521
517
507
510
514
517
524
533
536
540
533
522
529
534
532
539
549
556
562
570
571
573
577
588
583
570
570
570
558
547
550
561
575
586
595
600
597
600
609
615
615
600
577
558
545
541
541
551
559
559
545
529
516
517
522
517
516
517
496
459
431
412
398
395
392
393
393
389
376
371
377
372
363
356
352
354
347
343
344
349
361
374
387
375
360
368
381
383
387
386
393
387
372
369
381
393
397
396
403
412
415
422
419
414
424
431
430
425
424
429
436
447
459
453
455
448
437
436
437
442
445
442
438
445
460
462
457
458
458
468
473
467
453
441
442
451
471
476
479
483
477
469
475
480
479
474
468
463
464
464
456
457
457
455
453
454
456
458
466
470
459
456
448
436
446
467
467
466
470
480
492
497
489
490
484
478
489
494
491
477
473
477
485
488
487
481
479
480
483
483
476
476
479
487
478
467
464
469
467
464
465
470
478
480
483
486
479
471
466
478
489
487
492
504
525
525
516
499
488
477
465
471
484
495
500
500
496
487
487
488
494
495
500
499
499
495
485
484
494
501
499
492
479
463
457
461
466
483
503
509
501
489
479
474
471
461
451
458
482
491
489
482
477
468
461
458
452
459
484
496
501
503
492
476
466
463
459
458
472
482
480
481
492
497
489
488
478
478
481
482
478
486
488
487
481
486
491
495
499
498
507
505
498
498
510
512
509
504
496
489
487
500
523
536
530
527
528
533
523
512
517
515
498
494
510
520
524
530
534
530
528
517
509
514
527
531
522
508
507
501
487
481
477
479
494
486
478
475
478
475
463
455
455
472
498
520
539
589
660
737
826
909
961
971
938
864
783
702
619
522
426
360
333
338
351
358
370
390
406
416
417
419
425
432
449
448
440
442
455
453
444
452
463
458
462
466
470
479
490
487
488
490
492
493
487
496
507
498
493
485
484
498
508
513
519
527
523
512
507
508
521
530
533
521
512
516
524
530
532
533
545
553
549
545
544
546
548
544
552
561
566
568
573
577
588
591
585
590
596
607
602
587
579
571
577
599
612
621
629
629
630
630
626
628
643
636
623
623
621
610
605
614
623
626
623
609
596
583
574
572
568
569
568
546
525
510
492
479
462
445
435
436
440
443
436
428
413
400
395
396
397
392
391
397
396
393
384
382
385
391
394
396
407
402
391
385
394
409
420
424
420
410
406
408
407
415
415
422
431
432
434
431
441
449
455
462
465
464
446
437
450
464
461
451
463
480
482
471
465
463
476
492
487
481
477
479
480
489
493
496
487
491
486
473
467
477
494
498
488
491
508
522
525
514
503
487
489
495
493
488
485
493
498
504
515
522
521
510
509
505
502
508
505
518
517
518
521
500
495
511
523
515
507
513
528
542
544
535
521
521
523
519
520
525
530
532
529
524
521
519
510
513
530
536
539
546
545
536
533
533
540
539
535
535
537
540
540
546
549
542
530
534
541
541
546
557
557
543
526
516
513
518
523
532
543
550
539
543
549
535
524
518
518
524
531
543
545
546
551
552
557
566
559
554
550
530
519
514
515
521
518
514
498
499
522
520
528
532
531
525
519
527
533
529
521
518
526
533
527
518
521
521
524
516
516
517
515
519
525
531
541
535
524
519
520
515
515
516
524
533
532
531
528
526
520
519
531
538
532
521
507
500
515
534
541
542
543
544
546
551
549
537
541
547
534
519
514
519
536
548
564
588
587
562
532
525
525
537
552
560
560
553
546
530
519
514
510
507
509
510
496
494
502
507
515
514
506
506
503
505
521
561
615
671
749
833
902
948
953
921
849
770
683
571
465
387
344
321
316
320
336
359
378
392
416
427
438
455
460
458
471
487
484
470
471
477
479
480
474
479
489
488
489
496
510
524
521
503
498
498
502
500
506
512
518
525
526
525
521
510
501
515
525
541
549
548
551
550
539
537
531
526
532
552
563
566
560
547
535
541
560
576
588
578
560
562
573
585
590
588
595
595
594
595
598
600
608
613
627
644
637
623
617
623
623
619
626
648
657
651
633
633
630
620
611
605
613
623
624
610
588
577
581
589
584
571
550
526
507
496
488
483
486
489
478
458
448
448
451
436
413
392
384
387
389
386
385
385
387
399
393
377
376
386
400
415
430
422
411
416
423
408
396
396
402
410
424
439
435
434
440
436
431
434
445
447
443
447
460
466
456
459
464
473
482
490
494
476
467
468
469
478
492
495
504
507
513
517
508
494
502
515
524
520
524
528
533
536
519
514
525
524
528
535
535
523
513
516
527
542
539
527
517
516
525
527
524
531
539
543
541
538
527
522
532
535
537
538
533
532
526
525
541
551
554
548
532
531
539
528
533
545
540
538
536
533
527
530
549
558
558
552
550
551
553
561
569
556
542
543
556
551
547
556
572
581
575
565
551
543
533
529
533
537
545
556
554
542
546
555
562
561
551
538
534
536
542
557
566
554
548
547
555
562
557
554
548
554
559
551
531
532
547
551
547
544
546
550
554
550
546
541
543
541
544
545
545
544
543
538
538
544
550
537
527
513
508
520
545
561
565
555
548
538
534
531
528
531
530
529
526
525
522
525
534
538
533
531
542
551
547
540
541
533
523
519
519
515
517
527
530
524
506
497
497
506
509
512
528
540
553
552
552
557
558
555
554
546
547
550
556
550
527
499
485
477
478
483
475
472
476
477
483
489
487
494
490
471
480
504
509
502
505
519
561
626
705
790
883
956
1000
993
920
824
731
632
532
435
368
336
310
297
314
343
369
387
388
397
417
432
443
458
458
457
447
442
443
456
467
471
477
487
487
475
469
475
482
483
479
469
468
478
484
488
494
489
489
502
506
494
482
477
503
526
531
525
529
522
514
512
516
525
524
520
506
496
505
522
528
538
541
536
542
541
539
537
542
549
538
538
558
576
575
568
566
562
563
564
564
557
562
586
605
613
613
611
605
600
596
591
586
586
573
572
577
576
579
590
594
587
579
576
567
558
551
544
539
534
532
523
507
494
483
476
470
459
436
430
427
424
413
400
393
387
381
372
363
345
334
341
349
366
374
380
376
379
393
396
386
377
374
371
380
386
379
373
380
387
386
394
420
431
432
429
413
401
404
412
424
428
433
436
437
452
460
447
437
431
435
448
449
452
453
459
469
463
461
458
450
455
469
472
470
464
464
472
481
485
482
477
463
455
466
478
476
489
493
492
485
480
483
486
473
470
465
472
480
480
483
483
487
499
499
498
489
475
472
464
457
452
464
472
470
470
472
476
484
483
482
488
488
477
475
473
477
487
490
492
488
489
485
486
491
498
500
509
509
502
498
497
495
499
491
478
467
461
468
475
479
475
473
471
467
472
479
477
473
480
495
506
514
506
504
507
505
500
504
507
497
497
490
478
480
496
506
501
499
508
516
512
509
502
496
508
514
509
499
506
522
522
510
511
522
527
527
520
502
509
513
509
504
513
522
530
533
529
521
511
511
519
534
527
508
504
495
499
508
522
516
514
529
539
538
527
516
513
513
519
520
512
513
520
521
513
517
509
503
508
508
504
504
515
527
533
535
546
548
547
540
535
535
534
532
530
522
518
527
537
539
539
538
544
552
548
541
537
533
531
537
520
513
506
498
495
493
487
491
499
506
509
503
500
512
516
509
505
493
484
475
478
485
498
520
557
611
659
716
798
886
958
987
957
874
790
689
588
498
416
350
326
331
336
347
365
379
389
403
418
432
435
435
441
451
458
457
462
466
465
452
450
455
463
479
495
487
464
451
450
459
468
471
476
479
486
500
507
506
494
495
505
494
489
495
500
506
504
505
499
494
506
523
523
518
514
513
518
529
539
545
544
545
544
552
552
531
524
537
548
548
554
560
572
570
574
592
607
612
618
619
604
602
608
613
608
598
599
609
620
624
625
622
635
650
641
626
622
620
617
602
592
593
603
600
590
578
556
531
528
534
517
516
510
496
485
486
464
440
426
424
422
424
415
401
395
384
377
377
380
386
380
369
363
363
372
386
399
395
380
358
342
344
362
384
400
417
425
416
406
395
389
395
396
411
432
437
431
441
437
426
433
437
444
447
452
464
470
464
451
449
443
433
437
454
467
483
488
484
470
460
449
439
446
463
479
485
477
465
450
455
463
468
460
462
478
479
476
476
478
483
490
484
470
467
473
475
472
467
475
482
480
475
475
478
481
484
484
486
492
493
486
479
484
489
482
483
494
493
485
492
490
492
495
506
525
533
526
516
506
520
523
520
520
525
523
516
514
514
513
511
502
489
501
515
517
514
519
535
543
530
521
514
516
513
505
502
504
505
506
513
520
529
535
521
504
499
496
500
515
521
522
514
507
499
504
512
515
523
512
500
518
520
517
508
506
493
486
492
506
516
520
530
531
532
516
514
517
517
508
502
503
503
503
500
509
513
518
524
518
513
505
499
484
483
489
501
523
534
529
527
519
507
502
517
523
523
527
518
500
507
519
528
550
551
544
539
534
516
505
513
529
551
560
552
529
513
511
506
514
527
529
541
552
556
552
553
563
575
579
573
561
552
545
543
546
557
567
560
551
547
534
520
524
537
540
533
507
499
502
502
500
501
499
503
508
512
514
510
520
550
586
637
704
784
872
948
989
991
931
848
755
653
553
468
391
342
329
327
325
332
350
368
397
418
435
447
459
452
453
459
470
460
463
478
482
469
460
463
480
489
486
487
488
495
507
500
495
495
496
503
505
507
512
512
515
515
509
502
500
509
513
501
499
505
505
505
501
504
515
512
520
540
554
563
568
567
547
539
539
545
542
541
541
542
552
572
583
589
585
579
573
577
581
567
565
573
577
588
590
587
602
606
616
621
619
619
624
618
605
606
609
612
609
602
590
582
584
587
583
568
537
522
518
521
514
506
492
480
474
464
454
442
438
433
412
396
384
387
384
367
360
369
382
379
370
371
372
374
365
351
361
375
381
380
380
374
369
371
375
390
401
403
392
390
390
392
400
411
419
418
415
415
422
434
433
428
424
420
435
456
465
468
474
472
468
471
458
456
459
461
462
464
464
471
484
497
497
493
470
456
474
494
502
491
485
483
492
497
502
517
521
512
518
514
507
498
490
490
491
503
514
517
498
483
486
493
507
518
521
521
520
510
511
521
524
528
524
525
525
521
526
526
515
518
532
540
535
527
520
517
512
512
522
524
534
539
532
525
530
531
541
549
542
533
525
515
510
513
523
528
530
524
515
527
529
521
522
530
534
538
537
534
532
535
530
539
552
552
551
534
522
523
529
534
537
534
531
527
522
526
528
532
536
530
533
525
527
531
540
541
539
533
531
526
522
534
545
538
531
534
531
538
535
533
536
540
534
532
534
526
522
524
531
534
542
537
532
533
526
528
542
534
534
537
538
534
533
533
532
529
533
528
532
532
530
528
531
529
529
536
549
559
558
559
547
519
517
537
546
542
546
553
554
558
566
569
577
575
565
568
575
559
544
537
538
527
523
536
545
557
569
561
543
543
546
536
531
531
529
525
533
539
528
522
524
525
531
532
521
519
527
531
532
521
512
520
551
609
680
763
854
935
982
982
958
896
820
719
613
514
433
382
351
344
342
361
379
396
408
422
432
444
457
472
484
482
479
481
488
489
482
484
491
496
503
505
505
514
522
525
509
492
496
498
493
501
504
521
542
540
529
519
515
522
528
531
535
532
533
534
533
523
524
528
526
523
530
534
550
564
566
566
564
554
553
559
558
545
550
565
561
554
558
564
571
577
592
595
593
597
594
589
582
578
588
605
608
606
610
615
611
603
595
599
597
600
614
622
627
623
621
612
606
610
606
594
586
580
570
563
547
520
506
496
482
477
476
469
471
465
451
422
399
388
389
400
404
403
403
400
388
375
371
372
374
373
366
361
350
341
354
368
392
400
385
373
370
364
364
379
391
397
407
405
410
411
406
402
405
417
426
431
426
434
441
438
441
446
439
422
434
455
457
450
443
444
440
448
461
468
461
456
461
477
482
480
471
455
443
439
447
467
471
473
470
469
476
481
478
483
490
491
489
473
460
455
467
490
508
507
489
485
486
491
495
499
499
489
479
485
493
501
498
493
496
488
483
480
481
486
491
493
499
505
506
501
494
491
500
505
497
492
489
492
495
501
508
504
504
495
481
467
455
457
466
463
479
495
488
479
492
495
492
496
500
488
479
470
460
468
484
497
503
504
492
475
472
480
489
498
499
500
499
490
489
496
502
516
528
518
501
489
486
479
485
498
498
501
495
490
500
512
508
512
505
493
485
485
486
503
513
511
513
505
502
503
508
506
507
517
516
507
491
492
502
515
519
523
531
532
523
506
516
514
516
515
503
505
507
500
509
517
527
528
522
506
488
489
497
509
515
522
533
539
542
535
510
502
517
525
514
512
510
514
515
522
529
537
543
547
541
539
546
543
545
546
535
537
545
548
538
525
525
539
551
556
550
537
549
551
544
533
524
524
521
518
510
509
507
515
521
514
500
493
498
504
510
510
510
509
505
491
488
506
545
610
684
771
859
929
970
983
957
894
807
697
591
496
410
362
346
353
361
370
381
393
402
410
421
430
439
446
452
460
469
461
452
454
457
464
454
448
463
480
490
493
495
497
494
490
495
500
506
512
509
500
509
514
512
510
509
503
493
487
494
491
501
511
521
533
542
548
543
530
533
543
534
529
525
530
554
565
560
554
558
567
576
587
597
601
584
569
578
582
583
583
594
601
602
610
614
615
617
621
615
607
606
611
629
644
660
654
637
633
631
638
643
640
635
627
629
633
622
610
617
609
581
560
543
534
531
538
524
507
492
487
489
481
462
447
444
441
434
421
406
402
403
404
401
394
383
376
369
368
382
389
389
384
389
398
388
376
374
374
377
391
403
409
404
400
403
406
417
418
413
419
422
427
443
462
469
463
462
462
462
456
464
470
460
453
466
482
486
480
471
474
480
479
471
469
477
476
468
465
470
483
487
484
472
467
473
473
470
480
489
493
503
507
506
507
499
486
487
493
490
487
489
498
504
510
507
500
487
483
477
486
500
498
485
473
473
478
471
468
486
505
511
515
516
499
484
486
497
501
506
508
508
511
508
514
521
519
518
526
520
509
510
519
530
534
524
506
494
493
500
504
517
521
529
535
532
517
513
516
522
518
512
512
514
516
518
517
521
526
528
535
534
533
528
522
520
525
533
546
539
525
526
538
546
550
551
557
556
548
546
548
545
542
545
537
532
530
528
533
535
526
520
510
519
524
522
523
530
529
520
518
518
524
524
523
521
520
522
528
532
537
528
524
516
509
507
510
510
513
513
509
510
516
517
525
540
546
539
514
494
484
487
497
506
507
503
504
511
518
517
521
534
545
554
548
535
531
519
512
512
520
526
532
535
538
542
541
535
542
544
547
550
557
564
568
553
536
519
522
539
555
569
583
569
542
522
522
533
530
524
518
519
517
517
518
515
502
502
507
509
506
500
501
506
513
509
499
488
488
510
556
632
709
786
864
928
969
963
915
840
732
621
522
428
358
318
291
298
317
339
366
384
395
405
418
438
462
473
475
475
468
464
458
451
455
465
462
452
459
470
480
476
480
499
507
502
489
479
478
475
479
487
489
491
491
490
496
508
503
498
508
507
499
497
483
482
495
512
535
548
551
543
540
534
515
510
503
501
507
523
535
541
542
545
548
546
554
568
567
568
564
571
570
570
576
580
592
604
610
613
607
592
590
593
608
621
624
618
613
597
594
602
602
597
587
582
578
577
586
583
568
547
527
514
525
525
511
505
489
474
458
446
425
417
417
414
401
394
390
392
392
403
409
379
358
349
356
363
365
369
368
379
394
408
399
372
360
369
391
409
427
435
433
417
397
397
396
407
433
436
428
430
446
458
456
452
456
462
474
492
503
493
489
495
499
511
506
500
498
509
521
527
526
525
533
542
541
548
555
558
563
565
560
554
535
521
534
542
547
551
554
555
560
553
547
552
564
574
574
573
575
581
589
594
592
583
573
579
590
593
597
593
587
584
586
591
592
592
577
559
563
587
606
614
597
583
582
589
599
607
605
599
600
597
597
597
597
611
622
610
594
577
566
571
589
594
592
588
593
593
590
576
579
584
581
575
568
561
570
569
570
573
585
580
561
555
562
562
572
580
584
568
547
541
545
554
564
585
596
587
566
559
544
533
532
536
549
551
547
535
531
544
565
569
562
562
557
548
547
544
543
539
538
528
513
514
521
524
528
535
538
541
535
539
560
555
549
549
544
542
530
524
530
540
543
536
535
537
535
513
505
512
517
522
524
532
540
545
543
539
532
523
517
519
525
532
535
534
526
519
519
516
518
538
542
533
519
522
533
538
527
519
517
518
529
525
516
517
518
525
535
556
560
556
554
555
541
528
520
521
526
518
512
516
505
491
477
478
494
505
503
497
491
487
484
482
479
476
479
481
488
500
536
588
664
749
830
900
946
954
906
830
756
669
565
464
375
317
278
268
297
328
355
384
407
418
428
442
454
451
448
449
445
440
443
457
474
485
483
471
452
449
462
464
460
459
471
484
490
494
493
490
496
499
494
486
488
487
489
484
484
495
497
504
500
496
505
516
529
523
510
505
497
503
506
512
519
522
524
522
518
524
524
522
531
529
526
538
549
548
546
555
571
580
574
560
554
553
558
574
590
597
599
604
598
583
582
595
604
607
595
588
595
601
599
587
583
576
571
573
576
581
577
563
551
541
529
515
493
480
470
463
453
443
436
425
415
406
402
399
390
382
379
364
349
335
334
324
318
325
333
335
333
349
352
353
347
335
336
337
340
354
363
363
371
379
369
367
368
370
361
354
360
378
395
391
378
379
393
408
420
422
425
424
419
408
398
408
429
444
453
445
432
422
422
429
441
453
456
448
430
433
445
451
451
456
459
460
451
442
449
463
453
446
450
464
477
480
475
471
474
461
451
456
451
445
452
449
451
460
457
447
445
446
453
467
485
487
484
480
474
471
471
481
489
497
502
495
492
481
461
465
473
472
464
460
455
448
458
473
476
468
463
464
461
459
461
458
462
469
478
485
481
481
484
483
485
481
483
488
484
477
477
484
488
483
477
471
469
474
484
494
504
498
480
471
469
469
474
482
478
471
477
477
476
475
477
493
495
500
489
471
472
483
482
475
476
472
466
477
482
476
477
484
492
498
499
484
476
474
480
488
495
487
477
475
478
486
494
500
498
497
483
480
480
489
491
492
498
493
489
488
484
486
488
484
480
477
489
489
485
482
489
496
499
498
497
498
500
491
485
491
490
494
494
495
500
505
505
508
506
504
500
497
496
500
509
521
528
526
520
506
501
505
517
525
532
535
523
512
503
513
520
532
550
542
528
523
524
526
523
526
522
512
509
509
504
495
486
487
496
496
497
497
496
498
500
500
497
503
501
481
465
463
477
514
578
646
726
815
889
942
965
948
892
815
720
610
512
427
362
326
319
332
343
355
372
396
416
434
449
458
453
435
436
444
445
451
450
452
455
454
452
449
452
464
469
457
452
455
459
467
486
500
511
504
490
483
481
489
489
494
497
509
521
513
496
498
506
517
528
525
527
524
518
515
519
521
529
542
546
535
536
556
563
552
546
550
559
560
565
580
592
595
595
595
586
580
583
590
590
588
578
568
571
582
600
605
609
607
610
616
611
609
618
625
624
620
631
622
615
612
609
602
594
588
586
576
559
539
533
527
507
499
496
487
478
464
449
437
418
401
398
392
385
367
358
361
377
387
379
366
356
351
357
369
380
386
375
357
364
368
366
370
369
362
360
367
377
383
392
407
412
405
388
390
397
403
403
407
415
428
431
430
420
415
425
433
447
461
457
451
455
452
463
475
479
479
476
482
486
480
478
495
506
510
506
503
486
466
462
468
476
488
498
503
500
496
497
508
508
509
500
480
468
473
487
495
495
496
492
494
494
494
498
496
492
495
500
505
505
501
498
493
497
504
503
500
488
482
491
494
494
492
497
507
504
502
504
498
500
501
497
492
489
500
503
510
522
529
522
511
507
502
499
493
502
512
518
516
513
495
490
503
515
512
497
488
477
469
473
483
501
505
492
489
494
489
495
494
494
499
504
510
509
506
510
513
509
498
498
512
527
528
521
516
513
520
516
519
515
517
522
515
508
492
483
493
500
505
508
510
510
506
503
507
515
514
515
520
522
517
504
498
503
521
528
521
522
527
530
523
510
497
502
513
522
528
519
511
500
497
512
526
528
520
519
518
508
511
510
513
515
516
517
510
505
507
519
522
510
507
514
520
522
524
522
523
527
528
538
534
533
539
547
564
578
573
565
561
549
538
538
542
551
562
564
564
562
554
552
554
558
559
555
557
563
555
554
558
559
556
544
537
534
539
540
536
537
540
526
514
521
513
497
501
521
523
517
528
531
545
582
623
693
773
858
922
957
955
929
879
806
706
605
522
440
368
331
329
340
348
362
391
419
423
433
447
463
471
481
483
487
495
502
506
507
497
489
473
477
494
498
498
505
508
506
515
515
506
506
516
537
539
526
510
506
499
506
517
530
537
538
533
518
513
513
518
531
541
537
535
530
536
543
555
553
546
547
551
558
559
550
544
549
559
564
561
560
570
575
572
573
587
597
589
579
583
593
608
614
615
614
617
623
627
633
631
621
617
620
621
609
610
615
602
585
586
590
586
587
584
577
555
547
552
563
547
525
503
486
480
476
477
468
447
413
393
384
382
390
400
382
367
362
352
346
338
341
347
355
366
369
369
363
374
389
396
391
392
399
388
380
376
380
391
404
410
415
423
422
424
429
432
422
417
414
412
417
422
430
440
444
448
457
468
476
486
476
458
462
474
486
502
492
483
484
495
499
507
502
500
502
499
493
479
479
495
497
491
488
481
482
491
505
509
508
514
514
512
518
509
504
505
501
497
499
504
516
532
522
506
497
505
514
513
515
505
494
494
495
502
510
528
546
550
538
526
520
521
523
527
536
544
547
542
531
519
514
518
531
534
540
542
544
534
522
527
535
543
545
537
528
534
543
545
546
550
542
531
531
535
542
533
529
533
531
540
549
554
557
557
550
542
522
511
507
502
509
521
537
545
550
550
551
553
557
549
546
547
546
551
544
551
552
557
564
562
554
544
535
537
547
555
556
553
556
557
552
545
542
540
548
560
568
561
555
554
545
541
554
567
576
576
571
576
574
570
558
555
560
559
557
555
568
587
573
556
549
538
522
527
547
567
565
562
568
575
574
571
564
568
575
573
561
551
546
549
557
554
554
547
540
549
560
573
572
565
573
579
571
560
560
559
555
