870
881
865
829
793
780
793
825
859
871
854
819
782
769
782
816
850
861
846
812
775
761
776
810
845
858
843
808
772
761
776
809
843
855
839
804
769
755
770
805
839
848
833
800
765
752
766
800
833
844
828
794
759
746
760
796
830
841
825
790
754
742
755
789
824
834
818
784
749
738
751
786
821
833
819
785
749
737
752
787
822
833
818
783
748
737
752
787
821
832
815
779
743
731
746
782
817
829
815
779
743
731
745
779
814
826
811
776
740
728
742
776
812
823
809
776
739
727
743
778
812
825
810
774
739
728
744
778
812
822
807
773
738
725
740
775
811
822
806
771
737
725
739
772
807
819
803
768
733
722
737
771
805
816
802
767
731
719
735
770
804
814
798
762
728
718
733
767
800
811
796
760
724
712
728
762
796
808
792
755
720
709
725
759
794
804
787
752
718
708
724
759
793
803
786
751
718
708
722
754
786
795
778
745
712
701
717
751
785
795
779
743
707
697
712
746
780
791
775
739
703
690
705
739
774
784
766
730
695
685
700
735
769
780
763
729
695
684
701
736
770
779
764
729
694
683
699
734
768
780
764
728
694
683
698
731
763
772
755
721
688
677
694
729
763
772
754
718
683
673
688
722
757
768
749
713
680
671
686
721
754
764
748
712
677
667
683
717
750
759
742
708
674
664
679
714
748
758
740
705
671
661
677
713
748
758
741
706
672
663
678
712
746
756
739
704
669
658
674
709
743
754
739
703
667
658
676
712
745
755
738
702
668
658
675
711
744
753
736
700
666
656
672
708
741
751
735
699
665
654
669
704
738
749
733
698
664
652
668
703
736
747
730
694
659
648
664
699
732
741
723
686
653
645
663
699
732
741
723
687
654
645
662
699
733
742
725
688
653
642
658
693
727
737
721
687
654
644
661
696
729
738
721
686
652
643
659
695
728
736
717
680
647
638
655
691
726
735
716
680
645
636
653
689
721
729
710
674
640
632
652
689
722
730
713
677
644
635
652
688
722
731
713
677
644
636
654
688
721
729
710
672
638
630
648
684
716
724
708
673
640
632
650
685
718
726
708
672
638
628
646
681
713
721
703
666
633
624
642
678
712
719
701
665
632
625
642
677
710
718
701
665
631
623
640
677
711
719
700
663
628
619
638
675
707
715
696
659
625
617
635
673
707
714
695
658
625
616
632
668
701
707
688
652
617
609
626
662
696
703
684
647
613
602
620
657
691
700
684
647
611
602
620
656
690
698
678
643
611
602
621
656
689
697
679
643
610
602
619
654
685
691
673
637
606
599
618
653
686
694
676
640
607
599
616
652
684
691
672
636
604
596
615
652
684
689
670
634
602
595
614
650
682
688
668
630
599
592
610
646
677
684
664
626
595
589
607
643
676
682
662
625
594
587
605
641
674
679
659
623
591
584
601
634
664
670
652
616
583
576
594
629
660
667
649
614
581
573
592
627
659
665
644
607
575
568
586
621
653
659
638
601
568
560
577
613
644
650
630
593
561
553
573
610
643
649
629
591
556
547
566
604
637
644
625
589
557
549
568
604
637
644
622
582
548
542
561
598
629
636
617
581
548
540
559
595
628
635
616
579
547
540
560
596
628
633
614
578
547
541
560
598
630
635
614
577
544
536
554
590
622
630
610
573
540
533
552
590
621
627
606
569
537
531
551
588
619
625
604
567
536
529
549
586
616
621
602
564
530
524
544
581
611
617
597
561
531
526
546
584
616
621
601
564
531
525
544
581
614
621
602
565
532
526
545
582
614
618
597
561
531
526
546
583
614
619
599
563
531
525
543
580
611
617
598
560
528
521
541
577
610
617
598
560
528
522
542
578
609
616
596
559
528
523
543
581
611
616
595
558
527
522
542
579
610
614
594
557
526
520
541
577
607
611
590
553
522
517
537
575
606
611
591
554
522
517
538
575
608
614
594
558
527
520
538
575
605
610
590
552
521
515
536
573
605
609
588
550
517
511
532
570
601
607
586
548
518
513
533
572
604
609
588
550
519
515
538
576
606
609
589
553
523
519
540
577
608
612
591
553
522
515
535
572
602
608
588
551
520
515
535
571
602
606
586
549
519
515
536
574
605
610
589
550
519
514
535
572
602
607
586
549
518
513
534
571
601
605
584
546
515
510
532
570
602
607
588
550
519
514
534
572
603
606
585
549
518
513
533
570
600
606
586
549
518
512
535
574
605
608
587
549
518
512
533
570
600
605
584
546
515
509
531
568
599
603
582
546
517
514
534
571
600
604
582
543
511
508
529
567
597
600
579
541
509
505
527
564
593
598
578
540
509
504
526
563
594
597
576
538
507
502
522
559
590
594
572
533
502
497
518
556
587
591
569
530
498
493
513
552
585
589
567
528
496
492
513
551
582
586
566
530
500
496
518
555
584
587
564
527
496
491
511
548
579
583
564
527
495
492
513
551
580
584
563
524
492
488
510
550
582
584
560
521
492
488
510
549
580
583
560
522
491
488
510
550
580
582
560
523
493
489
510
548
578
581
557
518
487
485
506
544
574
578
556
518
487
484
506
544
575
577
554
516
486
484
506
545
574
576
554
517
487
483
505
542
570
573
552
514
485
484
507
545
574
576
556
519
490
487
509
547
576
578
555
516
486
482
504
543
574
576
553
515
486
483
505
543
572
573
550
512
484
483
504
543
574
576
553
514
485
483
504
543
572
575
552
513
485
483
505
543
572
574
552
513
485
482
503
542
571
573
550
511
482
480
503
543
572
574
549
509
482
481
502
541
569
571
548
510
481
479
501
539
567
568
545
508
480
479
501
538
567
570
548
509
480
478
501
540
568
569
545
506
478
476
498
536
565
566
542
503
474
472
495
533
562
565
543
504
475
474
497
536
564
564
539
500
472
470
493
532
559
559
536
496
467
466
488
527
556
558
535
496
467
465
488
527
556
557
534
495
466
465
490
529
556
557
535
497
470
470
494
532
558
559
536
496
467
465
488
526
554
555
532
493
464
462
484
523
551
553
531
493
464
462
487
526
554
555
532
492
463
462
486
525
554
555
532
494
466
465
487
525
554
554
531
493
464
463
488
527
554
555
532
494
466
464
487
525
553
554
529
490
462
462
486
525
553
554
531
494
467
467
490
528
558
560
536
496
468
465
489
528
556
557
533
494
464
463
486
525
554
555
533
494
467
467
490
528
557
559
535
494
466
466
490
529
557
558
535
497
469
468
491
531
559
558
535
497
469
468
491
530
559
559
535
495
466
465
488
528
557
558
534
494
467
466
489
528
557
558
533
494
467
466
487
526
554
556
531
494
466
466
489
528
556
556
533
496
469
469
492
530
557
557
532
493
467
467
490
528
555
555
530
491
465
465
488
527
554
555
532
493
466
467
491
529
557
557
532
494
467
467
491
529
556
556
532
493
464
463
488
528
555
555
533
495
467
467
491
530
558
559
534
495
465
464
489
528
556
555
531
493
466
467
493
532
561
560
534
495
468
468
492
529
556
555
531
493
466
466
491
530
558
557
532
493
466
466
489
528
555
555
531
492
465
465
489
528
555
554
528
487
459
460
485
523
550
548
523
484
456
455
479
518
545
545
519
481
455
454
478
515
540
538
513
476
448
449
472
509
535
534
509
471
443
443
466
503
528
528
503
465
439
439
462
500
527
525
500
461
434
433
456
494
520
519
495
458
431
429
451
489
514
512
487
448
421
422
446
486
512
510
484
446
420
420
441
477
502
500
475
437
409
408
432
469
495
494
470
430
403
403
426
462
489
490
466
427
400
400
424
461
486
484
460
423
398
399
424
461
487
486
460
421
394
395
420
459
485
482
456
417
390
391
415
453
478
477
452
415
390
392
416
452
476
473
448
409
381
382
406
444
468
468
445
407
380
379
402
440
466
464
438
399
373
374
397
434
458
456
430
392
365
367
391
429
455
453
429
394
369
370
394
432
459
458
434
396
369
369
391
428
454
453
428
390
363
364
390
427
451
449
425
387
360
362
386
423
448
447
423
387
361
361
386
424
450
449
423
385
360
361
384
421
447
445
419
381
356
358
383
421
445
443
418
379
353
354
378
417
443
442
418
380
355
356
382
420
446
443
418
379
354
357
383
420
444
441
415
376
351
353
377
413
438
436
412
375
350
352
378
418
445
444
420
382
355
355
381
418
443
442
417
378
351
353
378
415
440
437
412
375
351
354
380
418
443
441
416
379
353
356
382
421
447
446
422
386
362
364
389
427
452
449
424
386
363
364
389
426
450
448
423
385
359
362
389
427
451
448
421
382
356
359
387
427
452
450
426
388
364
367
391
428
452
450
425
387
363
366
392
431
456
453
428
391
367
369
393
430
455
452
426
389
365
368
395
434
459
457
433
397
372
373
399
437
462
460
435
397
372
374
400
439
464
462
438
401
377
379
404
442
467
465
439
401
377
380
406
445
470
470
445
408
383
386
413
453
479
477
451
414
389
392
418
456
481
479
454
416
391
393
418
455
480
477
452
416
392
396
423
462
487
484
459
422
398
402
429
468
494
492
465
427
403
405
432
471
496
493
466
429
405
408
436
474
498
495
470
435
411
415
440
475
498
496
471
434
410
412
439
477
500
495
467
429
405
409
436
476
500
496
469
431
408
413
441
480
505
500
474
436
413
417
446
485
510
507
480
442
419
423
449
486
509
506
480
442
418
421
447
485
507
504
478
440
417
422
450
488
513
509
482
445
422
424
450
489
514
511
485
447
425
428
453
491
516
512
486
449
426
429
457
497
522
519
491
452
428
432
458
496
520
517
490
453
430
435
462
501
526
521
494
457
434
439
466
505
528
523
494
455
432
436
464
502
527
523
495
457
433
438
465
503
526
523
496
458
435
439
465
503
527
523
496
456
432
438
466
506
530
524
496
457
434
439
467
505
530
526
499
461
438
443
471
509
531
525
496
458
436
441
469
509
533
527
498
461
439
444
473
511
534
529
501
462
438
441
468
507
531
526
498
460
437
443
471
510
534
529
501
463
439
444
471
509
532
528
500
462
441
447
475
514
537
533
505
466
443
447
474
512
534
530
502
464
441
447
476
514
537
532
504
465
443
447
473
510
532
524
495
458
436
443
471
509
531
526
497
460
437
442
469
506
528
522
492
454
431
435
462
500
523
517
489
451
429
433
462
501
525
521
492
454
431
437
466
505
528
523
495
457
436
442
470
510
532
526
496
458
436
442
469
508
531
526
497
459
437
443
472
510
533
527
498
460
439
445
473
513
535
528
497
459
438
444
473
511
533
527
498
461
439
445
474
513
536
530
501
464
441
447
474
512
535
528
498
460
438
445
475
514
536
529
500
463
442
448
477
516
539
534
505
467
445
453
482
520
542
536
508
471
448
452
480
519
541
533
503
465
444
452
483
522
544
538
509
472
450
457
485
522
543
538
509
470
449
456
485
524
546
540
511
473
451
457
484
522
543
538
509
470
448
454
483
522
543
536
506
467
445
452
482
520
542
535
507
472
451
457
485
523
544
537
507
468
448
454
482
520
541
534
505
469
448
453
482
521
544
537
507
470
449
456
484
523
545
536
505
467
448
455
484
523
542
534
505
468
446
452
481
520
541
535
506
469
448
454
481
519
541
535
507
470
449
455
484
523
544
537
508
469
448
455
485
522
542
535
507
471
450
456
485
524
547
540
509
469
448
457
486
523
543
535
504
467
447
454
484
523
543
536
506
470
449
455
483
521
541
533
501
462
441
447
476
514
535
528
498
461
442
449
479
518
540
533
503
464
444
451
481
520
542
534
504
466
446
453
483
522
543
535
505
466
445
454
484
524
545
538
508
470
449
458
487
526
545
537
506
469
449
456
487
526
547
540
510
472
452
460
489
528
548
542
514
478
459
466
494
531
551
542
512
474
454
461
490
528
547
538
508
470
450
460
489
527
547
539
508
470
450
458
488
527
547
540
509
470
450
461
492
531
551
542
512
473
453
461
491
529
549
542
512
474
453
462
492
531
550
542
513
477
457
465
495
532
551
542
512
473
453
461
493
533
553
545
515
477
459
468
498
536
554
546
517
479
459
467
497
536
555
546
518
481
463
471
501
540
560
552
520
481
461
470
500
539
559
550
520
481
462
472
501
539
557
548
518
481
462
471
500
538
557
548
517
477
458
467
497
536
556
550
520
482
461
470
500
540
558
546
514
476
457
466
497
538
558
550
520
482
462
470
502
542
559
548
517
479
460
469
501
541
560
551
520
481
461
468
498
535
552
541
510
473
454
462
493
531
550
541
510
473
453
462
494
532
551
542
510
473
454
463
494
532
551
540
509
472
454
464
494
532
551
542
510
473
455
465
495
532
548
538
507
470
452
461
491
530
550
541
509
471
453
463
494
532
552
543
511
473
454
462
491
529
547
540
510
472
453
462
492
531
550
540
509
472
453
461
492
530
549
539
507
469
450
460
491
529
547
535
503
467
449
459
491
529
548
539
508
471
452
463
495
532
550
540
509
473
455
464
495
532
549
539
507
469
453
463
494
531
548
538
507
470
453
462
494
531
548
538
506
469
452
463
496
536
554
543
510
472
452
462
491
529
547
536
503
467
450
461
493
531
549
539
508
471
453
463
493
531
547
536
504
467
450
461
493
531
549
541
509
472
453
462
494
532
548
538
505
468
452
464
497
536
554
544
511
473
456
467
499
538
555
544
512
475
459
469
500
538
556
545
514
476
459
469
500
537
555
544
512
476
459
470
501
538
556
547
516
479
462
472
504
542
559
547
515
478
462
471
503
542
560
549
516
479
463
474
506
545
561
550
519
482
466
479
512
549
563
551
519
482
465
474
505
543
560
550
518
481
464
476
508
546
563
552
519
481
464
474
507
545
561
552
520
484
468
480
512
548
564
552
519
482
465
476
508
546
564
553
521
484
466
478
509
545
561
549
515
479
464
477
509
546
562
549
515
477
460
472
505
542
558
546
512
476
460
473
506
545
561
549
518
482
464
475
507
543
558
546
514
477
461
471
502
539
554
543
513
478
461
472
504
542
558
547
514
477
460
472
505
543
558
546
513
476
460
473
505
543
557
545
514
477
461
474
507
545
561
549
515
479
463
476
509
548
565
553
521
485
469
481
512
549
563
550
516
479
463
476
509
546
561
548
514
476
461
472
504
541
557
545
512
476
461
472
504
540
554
541
507
471
456
469
502
540
556
545
513
475
460
473
505
541
554
540
506
470
455
467
500
537
551
538
503
465
448
459
492
530
546
533
499
463
446
458
491
529
544
532
498
461
447
459
491
527
543
531
497
459
442
453
484
520
536
526
494
457
442
454
487
524
539
527
494
460
446
458
490
526
538
524
490
454
439
451
483
519
533
519
484
447
432
444
477
514
530
518
484
447
432
444
476
513
528
514
480
443
428
440
472
507
522
509
475
440
426
439
473
509
524
509
477
441
427
441
472
508
523
508
473
436
420
433
467
504
519
505
473
436
420
433
466
502
517
505
472
435
421
434
468
504
518
504
471
436
422
434
468
506
520
506
474
439
427
439
472
507
522
508
474
438
424
438
472
508
523
509
476
439
423
436
471
509
525
512
479
443
429
442
475
510
524
509
475
439
426
439
474
510
525
512
480
445
431
444
478
513
526
512
479
444
431
444
475
509
523
511
480
445
432
445
480
516
530
516
482
446
432
446
480
517
531
515
481
445
431
444
478
514
529
515
483
448
434
450
483
518
530
517
483
447
434
448
482
519
532
518
484
448
434
448
483
520
534
522
488
452
438
452
486
521
535
521
487
452
440
455
488
524
538
524
490
457
445
458
490
525
538
524
490
456
444
458
490
526
540
526
490
455
443
457
491
527
540
527
492
456
443
457
490
527
541
527
493
458
444
459
493
529
542
528
493
457
444
458
492
529
542
528
494
458
446
462
496
531
543
529
495
461
448
461
494
528
542
527
492
458
446
460
494
529
542
528
494
459
445
459
494
530
544
530
495
460
446
460
495
532
545
531
496
460
449
463
498
535
547
533
498
463
450
465
499
535
549
536
501
466
453
467
500
535
547
532
498
463
451
466
501
537
549
534
498
463
450
464
498
533
544
530
497
463
451
466
500
536
548
532
496
461
450
467
502
537
547
532
497
465
453
467
500
534
545
530
496
461
449
464
499
534
546
533
499
465
454
470
503
537
548
531
495
460
448
464
499
536
548
533
498
462
449
465
499
535
548
532
498
463
451
467
502
540
551
535
500
464
453
468
502
538
549
534
499
464
453
468
501
536
547
532
497
462
450
464
497
532
544
529
494
459
447
462
496
531
542
526
490
455
445
461
495
531
543
529
494
459
446
462
497
533
543
526
489
454
442
457
492
527
540
524
489
454
441
455
488
523
535
521
487
453
442
457
492
526
536
520
484
449
438
454
489
524
534
518
484
450
440
456
491
526
536
520
485
450
439
455
490
524
534
517
481
446
435
452
488
523
535
518
482
446
435
452
487
521
532
517
483
449
436
451
486
522
533
517
482
447
436
452
488
523
533
517
481
446
434
449
483
516
527
511
477
443
432
448
483
516
528
512
477
443
433
449
483
518
529
513
476
441
431
447
482
516
527
511
476
442
430
446
483
519
530
513
477
442
432
449
484
517
526
509
475
442
431
446
480
515
526
510
474
439
428
442
478
514
524
507
473
439
429
445
481
517
528
510
474
440
428
443
479
512
521
503
467
434
424
442
478
512
523
507
472
438
427
443
479
514
526
509
473
440
430
446
482
517
527
509
473
438
429
447
482
515
523
504
467
432
421
437
473
507
518
500
463
429
419
435
471
506
516
498
462
428
419
436
473
508
517
499
463
429
419
435
470
504
515
496
460
427
417
432
466
499
508
492
458
425
414
430
467
500
510
493
457
422
412
430
467
501
511
492
455
423
414
432
467
500
509
492
456
422
411
427
463
497
509
493
457
422
412
430
465
497
506
488
452
420
412
431
466
499
507
490
455
423
414
429
465
498
507
489
454
420
410
426
461
494
505
488
452
419
411
429
466
499
508
490
454
420
412
429
464
498
508
491
456
422
413
431
468
501
509
491
455
423
414
431
467
499
507
489
454
423
415
431
466
499
508
490
453
420
411
428
463
494
502
484
448
415
408
425
461
493
502
487
452
419
410
428
464
497
505
486
449
416
407
425
462
496
505
487
451
417
408
425
463
498
508
490
455
423
415
432
466
499
508
491
456
423
416
435
472
504
513
495
458
425
417
435
472
505
513
496
460
429
421
439
475
507
516
497
462
429
421
439
474
506
514
496
461
429
421
438
475
508
517
498
461
428
419
437
473
506
516
500
465
433
424
442
479
513
522
503
468
436
428
445
482
515
522
504
467
434
427
445
482
516
523
504
468
436
428
445
481
515
524
505
470
438
431
449
487
520
528
508
472
439
432
453
490
522
531
513
476
444
437
456
493
525
531
510
473
441
434
453
490
523
530
511
475
444
436
455
491
524
532
514
477
444
437
456
494
528
536
518
481
449
442
461
497
529
533
514
477
446
439
457
494
527
534
515
479
447
440
461
498
530
538
519
482
448
440
458
496
529
537
517
480
447
440
457
492
524
532
515
478
448
444
463
499
533
541
521
483
449
442
461
497
529
536
517
481
450
444
463
500
533
541
523
486
454
447
466
502
534
541
522
485
454
448
467
502
534
541
521
484
453
447
467
504
537
543
525
489
457
449
468
504
535
540
520
484
453
447
465
502
535
542
524
487
456
451
469
503
535
541
522
485
453
445
466
505
538
545
528
490
457
451
471
507
539
545
525
486
453
447
469
506
538
544
525
487
456
449
469
507
539
546
526
489
457
451
471
510
543
548
527
489
457
451
472
510
543
549
529
491
459
454
474
511
542
548
528
491
460
454
475
511
542
548
528
491
461
456
476
514
545
551
530
493
461
456
476
513
545
550
529
491
460
455
475
513
543
548
529
493
461
455
477
514
546
552
532
496
465
458
475
512
544
549
528
491
458
451
470
506
538
544
525
487
455
450
471
508
540
544
524
486
457
452
472
510
542
547
527
490
459
454
474
510
541
546
524
486
455
451
471
508
537
542
521
484
455
452
473
510
542
546
525
486
454
449
469
507
537
541
520
482
452
448
470
507
540
544
523
485
454
449
470
508
538
542
521
482
451
447
468
505
536
541
521
483
452
448
470
507
537
541
521
484
454
450
471
508
540
543
521
481
451
447
469
508
539
542
521
484
455
451
473
511
542
546
524
487
456
450
470
509
542
550
529
491
461
458
478
515
545
549
528
489
459
455
477
514
544
549
528
489
460
457
479
517
548
551
530
494
464
460
480
517
548
552
532
496
467
463
484
521
550
554
532
494
464
461
482
520
549
552
531
493
465
463
486
524
555
556
533
494
464
461
482
520
549
552
532
495
466
462
483
522
552
555
534
497
468
465
486
523
551
554
532
494
466
462
482
520
549
551
530
492
463
461
484
522
551
554
531
492
463
461
482
520
549
551
530
493
463
459
482
520
550
552
530
491
462
460
482
519
548
551
530
492
463
460
481
517
545
546
524
485
456
455
478
517
546
548
526
489
461
457
479
517
547
549
526
488
459
458
480
519
548
551
528
488
459
457
479
517
545
548
526
488
458
456
477
515
544
546
523
484
454
451
474
512
542
545
523
485
457
456
477
515
545
548
525
487
458
456
478
516
545
547
523
484
454
452
475
514
542
543
521
484
456
454
476
514
543
546
524
486
458
457
480
518
548
549
526
487
458
456
479
518
546
547
525
488
460
458
479
516
544
547
525
486
458
456
479
517
544
546
525
488
460
458
479
517
547
549
526
489
460
457
481
520
549
551
529
491
464
461
483
521
550
552
531
492
462
461
484
524
553
554
532
494
466
465
488
525
552
554
530
491
462
461
484
524
552
553
530
492
465
464
488
526
553
554
530
490
460
460
484
522
550
552
530
493
466
465
488
527
555
555
531
492
465
464
487
525
554
557
533
494
465
464
486
525
554
554
531
492
464
463
486
525
553
554
531
494
467
467
491
530
559
559
535
496
467
465
487
525
552
552
528
490
463
462
486
525
553
553
529
491
463
462
486
527
556
556
533
495
467
466
489
527
554
554
530
492
464
463
487
526
554
556
531
492
464
463
486
524
550
550
526
489
463
462
486
523
550
550
525
485
458
458
483
522
550
553
530
492
464
464
488
526
554
554
529
488
461
462
487
527
553
553
530
492
465
465
488
527
555
557
534
494
466
467
491
530
556
557
534
496
469
468
492
531
558
558
535
496
468
468
491
531
559
560
536
497
470
469
492
530
558
559
535
495
467
466
490
529
557
556
531
492
467
468
492
531
558
558
534
495
470
470
493
529
556
555
532
493
466
467
492
531
559
558
534
496
470
472
496
534
561
561
537
498
473
474
496
534
559
558
533
494
466
468
495
535
562
560
535
497
471
471
494
532
559
557
532
494
468
470
496
534
561
561
537
498
472
470
494
533
559
559
535
496
471
471
494
531
557
557
533
494
467
467
491
529
555
553
527
489
463
466
492
532
558
555
529
491
467
470
495
534
560
559
532
493
466
468
492
530
556
554
529
491
463
464
488
527
552
549
522
483
459
462
487
527
554
552
526
488
462
463
489
527
553
551
526
487
461
464
489
528
555
553
528
488
461
462
486
526
552
552
527
489
463
464
489
527
553
551
526
487
462
463
487
524
547
544
518
480
455
458
483
522
548
547
523
484
459
460
485
524
550
548
521
481
455
456
480
519
545
543
517
479
453
455
481
521
545
542
516
476
450
451
476
515
540
538
513
473
446
447
471
509
536
534
509
472
447
449
474
513
538
536
509
470
444
447
472
510
534
531
505
466
439
441
465
504
530
527
500
461
437
440
467
504
530
527
499
460
434
436
461
498
523
519
492
453
427
429
455
493
517
513
486
446
421
424
449
486
510
507
481
442
417
419
444
482
505
500
473
434
409
409
434
472
496
491
464
425
400
401
427
465
488
483
455
414
388
390
415
453
478
474
447
408
381
383
407
444
467
463
437
398
372
374
399
436
459
456
429
391
366
368
394
431
453
448
421
382
358
361
386
424
448
445
416
376
351
353
378
415
439
435
408
370
344
346
372
410
433
429
401
362
338
342
368
405
428
424
398
359
335
336
362
400
422
417
388
349
324
326
350
388
413
409
382
342
317
320
347
385
409
405
377
339
314
316
341
379
402
398
372
335
313
316
341
377
400
397
369
330
304
307
332
369
393
390
362
323
298
300
324
361
383
377
350
312
289
293
317
353
377
372
345
306
283
286
310
347
369
363
335
296
272
276
302
340
363
360
333
294
270
275
301
337
360
355
327
289
267
270
295
331
352
347
321
284
260
263
289
325
347
341
312
273
250
254
282
319
340
335
307
270
246
250
277
315
337
331
302
265
242
245
270
307
329
323
294
254
231
235
262
299
322
317
290
252
229
232
257
293
314
310
283
246
224
229
256
294
315
309
283
246
225
231
259
297
319
313
286
248
226
231
260
298
321
316
289
251
231
236
263
299
320
314
287
249
228
234
262
300
322
317
291
255
235
242
270
308
330
326
300
264
242
249
279
319
342
337
310
274
253
260
287
325
347
343
316
280
260
268
298
337
360
355
330
295
276
282
310
348
371
367
342
305
284
291
318
356
379
374
347
311
292
300
329
365
386
381
354
319
300
307
335
373
395
389
362
327
306
313
342
381
404
399
374
338
318
325
353
391
413
408
383
349
330
338
366
403
425
420
394
361
344
352
380
419
441
436
411
375
356
364
392
428
448
442
416
382
363
371
399
435
455
450
424
390
372
380
409
447
469
464
438
402
383
390
417
454
475
470
444
409
391
398
427
463
484
477
449
415
397
405
433
469
488
482
457
421
402
410
438
476
496
489
462
426
408
415
444
482
503
497
470
435
416
423
451
489
510
503
474
439
420
428
457
495
515
509
481
446
428
435
465
501
521
515
487
452
434
443
472
508
526
518
490
455
438
446
475
513
532
523
495
461
442
449
478
516
535
527
501
468
452
461
491
527
546
539
513
479
461
469
497
532
551
545
517
482
465
473
502
539
559
551
524
488
470
477
505
540
559
552
525
489
471
480
508
547
567
560
532
497
480
488
518
553
571
563
536
501
484
493
523
559
578
569
540
504
487
495
524
560
579
571
544
510
492
500
529
564
582
573
543
507
490
500
530
567
587
578
549
513
493
498
527
562
577
567
537
502
486
495
524
561
579
571
540
502
484
493
522
558
576
566
535
497
478
486
516
552
571
561
531
493
475
482
510
546
562
553
523
485
466
474
500
534
551
541
511
474
455
463
490
524
539
528
498
462
444
453
481
516
533
523
492
456
437
446
475
509
526
515
484
447
428
435
463
497
515
504
474
438
420
428
455
488
502
491
460
423
405
412
438
471
487
475
444
407
389
396
423
455
470
458
426
390
370
377
404
437
452
441
410
373
354
361
387
418
433
422
392
355
335
341
367
399
414
403
372
335
316
322
349
383
397
385
353
316
297
303
329
362
376
366
336
299
280
286
312
344
360
350
320
286
269
277
304
337
352
342
314
279
262
270
296
329
346
335
306
272
256
265
293
326
342
333
306
273
259
269
298
332
349
340
313
280
263
272
300
335
353
345
317
283
268
277
307
343
361
354
327
296
282
293
325
360
377
369
341
309
294
307
337
373
391
384
357
325
312
324
355
391
411
403
376
343
328
339
371
407
425
417
390
360
348
362
393
430
448
441
414
380
365
376
406
443
460
451
425
392
378
390
422
457
473
465
437
403
390
402
432
469
487
477
448
414
400
411
442
476
492
483
456
423
407
419
449
484
501
492
463
429
414
425
455
491
509
499
472
439
424
436
467
501
516
506
477
445
432
445
476
512
528
517
488
457
444
455
486
522
537
527
497
464
451
464
494
529
545
536
506
473
460
472
502
540
558
549
520
484
470
481
514
550
565
553
522
488
475
488
520
556
572
562
534
501
487
499
531
567
582
571
541
508
495
508
539
573
588
577
547
513
498
510
542
577
593
581
551
517
502
516
549
585
600
588
558
524
510
521
552
588
604
594
564
529
515
527
558
594
610
599
567
532
518
530
560
595
611
601
571
538
525
538
569
605
620
609
579
546
531
543
574
609
624
614
583
550
536
549
582
617
631
619
589
554
540
552
582
616
629
617
588
554
541
554
586
621
635
623
593
560
547
559
591
625
640
628
597
563
548
560
592
627
642
630
601
567
553
565
596
630
645
634
603
569
555
569
600
633
645
631
601
569
556
569
600
635
648
634
603
569
557
570
601
634
647
636
606
571
556
568
599
634
649
637
606
571
558
573
606
640
653
639
606
572
557
569
600
634
648
635
603
570
556
570
603
638
651
638
606
572
558
570
602
638
652
639
608
573
559
572
604
638
651
639
608
572
559
573
605
637
649
634
602
567
554
567
599
633
647
635
603
568
555
568
599
633
645
632
600
564
549
562
594
627
640
627
597
563
550
563
595
629
642
628
595
561
548
561
592
626
639
625
593
558
545
558
588
621
633
620
587
551
537
550
582
615
626
613
582
546
531
543
574
608
621
609
577
543
529
542
574
609
623
610
576
541
526
538
568
600
613
601
571
537
524
538
569
601
612
598
565
531
519
533
563
596
608
593
561
527
514
528
560
594
607
593
562
528
515
527
559
592
604
589
557
522
508
522
554
587
599
584
552
519
505
518
549
582
593
579
547
513
500
512
542
575
587
573
542
507
494
507
538
570
581
566
531
496
486
500
534
567
579
564
531
497
485
500
532
565
576
562
531
498
484
498
531
564
576
561
528
494
482
497
530
563
574
559
527
494
483
496
528
560
571
556
524
489
478
493
528
561
573
559
526
492
480
494
528
561
573
559
527
493
482
496
529
562
574
558
525
491
481
496
529
562
573
558
525
490
479
494
527
558
569
555
522
489
478
494
528
561
572
557
524
491
480
494
525
558
570
555
522
489
478
493
526
559
571
555
522
489
479
493
526
560
571
555
521
487
477
494
528
561
571
555
522
489
480
496
529
561
571
555
522
490
480
495
528
561
572
556
522
487
476
490
524
558
570
557
524
491
480
496
529
561
572
557
523
489
478
493
526
558
570
556
523
491
481
496
529
560
570
554
523
490
481
495
528
561
571
555
523
491
482
497
530
563
573
558
525
492
482
496
529
563
573
557
524
491
480
495
528
560
570
555
523
491
481
494
526
556
568
554
523
491
481
498
531
564
573
557
524
492
482
497
529
561
570
554
521
486
475
489
523
556
566
549
515
481
470
484
517
549
559
544
510
476
466
479
511
543
552
536
503
472
462
478
510
543
551
535
500
466
456
472
505
538
548
532
498
466
457
473
506
537
546
530
498
467
458
474
507
540
550
534
500
468
458
473
505
537
547
532
498
466
457
472
503
534
544
528
496
465
455
471
503
536
545
528
493
462
452
467
500
533
543
528
494
460
450
467
500
532
541
523
489
457
447
464
495
528
