448
487
9
499
515
559
567
538
487
444
435
462
513
558
567
540
488
444
434
461
512
556
565
539
489
445
436
464
516
559
567
540
488
444
435
462
513
558
567
541
491
448
439
465
516
560
568
540
488
445
437
464
514
558
566
539
488
444
435
460
509
554
564
537
486
442
432
458
508
552
562
537
487
444
435
462
512
555
563
536
487
444
436
462
512
557
568
541
489
444
434
460
510
555
566
539
488
443
435
462
513
558
569
542
490
447
437
463
513
558
568
542
490
445
435
461
513
559
568
540
488
443
433
460
512
556
565
538
488
443
433
459
510
556
566
539
489
445
435
460
509
554
564
539
488
444
434
461
513
559
570
543
492
448
436
462
513
558
568
542
490
444
433
459
510
555
565
539
489
446
435
460
509
553
563
537
486
441
432
459
509
555
567
541
492
447
436
461
511
555
566
539
489
445
435
462
513
558
569
542
491
446
435
462
513
558
568
541
491
446
436
463
514
559
570
543
494
450
440
465
515
560
570
544
493
447
435
460
510
556
567
542
492
448
438
464
515
560
572
547
495
449
439
465
514
559
570
544
494
448
436
463
514
559
571
544
495
450
439
464
514
559
571
545
495
450
439
464
513
559
570
544
494
448
438
464
514
561
574
550
500
454
441
465
514
559
571
546
496
451
440
466
517
564
576
550
501
456
444
467
515
561
573
547
497
452
441
466
516
561
573
548
498
453
441
465
515
561
574
549
498
452
440
466
516
561
573
549
500
454
443
468
517
563
575
550
500
454
441
465
514
561
576
552
501
455
442
466
515
560
573
549
500
457
445
470
519
565
578
552
501
454
441
465
515
561
575
550
502
457
446
471
521
567
580
555
506
460
447
470
518
564
577
552
503
458
447
471
521
567
578
553
504
459
448
474
525
572
584
558
509
464
451
476
526
571
583
558
507
460
446
470
519
566
579
555
505
460
447
470
519
566
579
555
505
458
444
469
518
565
579
556
507
462
448
471
519
565
578
553
503
458
444
468
516
562
576
552
503
458
445
470
521
569
582
557
507
460
447
471
519
566
580
558
509
462
449
474
522
568
582
558
508
461
447
469
519
566
579
555
506
461
448
473
523
569
583
560
510
464
450
473
523
569
582
558
507
460
446
470
519
565
580
556
508
462
448
470
518
565
579
556
508
462
448
472
522
569
584
560
510
463
448
469
516
563
578
557
508
461
446
471
521
569
583
559
511
465
452
475
524
569
583
560
510
463
448
472
522
570
584
561
512
465
452
475
522
567
581
557
507
461
447
470
519
567
583
559
509
461
447
470
518
564
578
555
506
461
447
470
519
566
581
558
509
463
449
472
519
566
581
558
508
461
448
472
521
569
584
561
511
464
449
469
517
563
578
555
507
461
447
469
518
567
583
560
513
466
452
474
522
569
583
560
511
464
449
471
518
563
579
555
506
460
445
467
516
563
578
556
508
459
443
465
514
562
577
554
506
460
445
467
515
563
579
556
508
462
447
469
516
563
578
556
508
461
444
467
516
564
580
558
508
461
446
468
518
567
583
561
513
466
449
471
519
566
581
559
510
464
449
470
516
561
576
554
507
462
446
468
517
565
580
558
510
463
446
467
516
566
584
563
515
467
450
471
518
566
580
558
510
462
447
469
519
567
583
560
512
464
447
467
514
563
581
560
512
463
447
469
518
567
585
564
517
469
453
474
522
570
586
563
513
465
449
473
522
571
587
563
513
464
448
468
515
563
579
558
511
463
447
469
516
565
581
559
510
464
449
471
519
568
586
565
516
468
452
473
520
567
582
562
515
467
449
470
518
567
583
562
514
465
448
469
518
569
587
564
516
465
447
468
515
563
582
561
514
466
450
471
518
566
583
562
514
466
449
469
515
563
579
557
510
464
448
470
518
565
581
560
514
466
449
470
518
567
584
564
515
466
448
469
516
563
580
560
513
464
446
466
512
560
578
557
509
461
443
463
511
560
577
557
510
462
445
467
515
564
580
559
514
466
448
468
514
562
579
559
512
465
448
469
516
564
581
559
511
463
446
467
515
563
581
562
515
467
449
468
513
561
579
558
511
463
445
466
514
562
579
558
510
462
445
465
512
560
578
558
511
463
445
464
511
562
580
559
513
465
448
469
516
564
582
563
515
466
448
466
513
563
582
561
515
467
449
468
515
563
581
561
513
463
445
464
511
560
578
558
511
463
444
463
508
558
577
556
509
461
443
463
510
558
577
558
511
462
444
464
510
559
577
556
510
463
445
464
512
560
577
556
508
459
441
461
508
558
577
557
510
462
443
463
510
560
580
560
513
464
445
465
512
560
579
559
512
464
446
464
509
559
578
558
511
463
446
465
511
560
578
560
514
464
444
462
509
558
578
558
512
463
444
464
511
560
579
560
513
463
444
463
509
559
578
559
512
464
445
465
511
560
580
561
514
463
443
462
508
558
578
560
513
463
441
459
504
555
575
556
508
459
440
460
506
556
575
556
510
460
440
459
503
553
573
556
510
462
443
459
503
552
572
553
507
457
436
453
499
550
570
551
504
453
432
451
497
547
567
549
503
455
434
453
497
547
568
552
507
459
439
456
499
548
567
549
503
454
432
448
493
543
562
543
495
445
426
444
491
541
562
545
498
449
428
445
490
539
559
541
494
445
426
442
486
536
557
539
493
443
423
439
485
535
555
537
492
442
423
441
486
536
556
539
496
449
429
445
489
539
559
542
495
445
425
441
485
534
554
537
492
445
425
441
485
535
556
539
493
446
428
445
489
538
559
542
497
449
431
448
491
541
562
545
500
451
430
448
494
545
566
548
502
452
432
450
495
546
566
548
503
454
433
451
497
548
569
551
507
458
437
455
500
550
570
553
508
460
439
455
499
551
572
552
506
458
438
455
500
549
569
552
506
457
437
455
500
551
572
554
509
460
440
457
500
549
570
554
508
459
437
455
500
551
573
557
511
462
441
458
504
554
574
556
511
461
439
455
500
551
573
555
510
462
442
459
503
553
574
558
513
464
444
461
505
555
577
560
515
466
445
462
505
554
574
556
511
463
443
460
503
554
576
559
514
466
447
464
509
559
581
564
520
470
448
464
507
558
580
562
519
469
448
465
511
562
585
569
524
472
449
466
510
561
583
566
520
470
447
464
509
559
580
562
518
468
447
463
506
556
578
561
517
467
445
461
504
554
576
561
517
467
445
462
505
556
578
561
517
467
446
463
508
559
581
565
522
473
450
465
508
559
582
565
520
470
449
467
512
563
584
568
523
473
450
465
508
559
582
565
521
471
448
464
509
559
582
565
520
471
448
464
508
559
581
564
520
470
448
463
505
555
576
560
516
466
445
462
506
556
578
561
518
468
445
462
506
558
581
565
522
472
448
463
506
558
581
565
521
469
445
461
505
556
579
562
518
469
448
463
507
557
579
564
520
470
448
463
505
555
577
561
516
465
442
458
503
556
579
565
521
471
447
462
506
557
579
562
518
469
447
463
507
557
580
564
517
466
443
460
506
557
578
560
516
467
444
459
503
555
577
561
518
470
449
464
507
556
579
563
518
466
443
458
501
552
575
560
517
466
442
458
501
551
574
559
517
468
446
461
504
556
581
565
520
471
448
464
507
558
580
563
519
469
446
461
506
558
582
566
521
470
446
460
504
555
579
564
521
471
447
463
507
558
581
566
523
472
448
461
503
554
578
563
521
472
449
462
504
554
579
565
522
472
448
463
506
555
578
563
519
468
443
458
502
554
577
563
521
471
448
462
504
556
578
562
520
469
446
460
503
554
580
566
524
475
453
468
511
561
584
568
524
474
451
464
507
558
581
566
522
472
449
463
506
557
581
567
523
473
449
463
506
557
582
567
522
470
446
460
503
556
580
565
523
473
450
464
507
558
583
567
523
472
448
462
505
556
580
566
523
472
448
462
505
556
580
564
521
470
446
460
503
554
579
565
522
469
442
453
494
545
570
555
512
462
438
453
497
549
573
557
513
463
438
453
496
547
570
557
514
464
441
454
496
548
573
559
517
466
442
455
499
551
575
560
516
466
442
456
499
551
576
562
518
467
443
457
500
552
577
562
519
468
444
458
500
551
576
563
520
471
446
460
501
553
578
565
522
470
446
459
501
552
576
562
520
470
448
463
506
557
582
567
525
475
451
465
508
559
583
568
525
473
448
462
504
555
580
566
524
473
448
462
505
555
580
566
524
474
449
461
504
554
579
565
523
472
446
458
501
553
578
564
521
471
446
459
501
554
579
565
523
473
447
461
503
555
580
567
525
475
449
461
502
553
579
566
524
473
448
461
502
555
581
568
526
475
450
463
503
553
578
565
523
472
446
461
505
556
581
567
526
475
450
463
504
555
582
570
528
477
452
464
504
555
580
567
526
476
451
464
506
557
583
569
526
475
450
463
503
555
581
567
524
471
445
458
499
551
577
563
520
470
445
458
501
553
577
565
524
474
448
460
500
550
575
560
519
469
443
457
500
554
581
568
526
474
447
459
500
551
578
567
526
475
448
460
502
553
578
565
523
473
446
459
499
549
574
561
520
470
444
456
499
550
576
565
523
472
446
459
501
553
580
568
526
473
446
458
500
551
576
564
521
471
445
457
497
548
573
560
518
468
442
454
495
546
572
559
519
470
444
456
496
547
574
563
522
472
447
459
499
550
576
563
522
470
444
455
496
549
577
566
524
472
446
458
499
552
578
566
525
473
445
457
497
549
577
565
524
473
446
457
498
550
576
564
522
472
448
462
505
558
585
573
531
479
451
463
504
558
585
572
530
477
449
462
504
557
584
573
533
482
456
466
505
557
583
570
528
476
448
459
499
550
576
564
523
473
447
458
497
548
575
564
