505
522
510
478
441
427
439
472
509
526
512
478
442
427
438
470
507
524
512
479
443
429
441
474
511
527
514
480
444
428
441
473
509
525
512
479
443
429
442
474
510
524
510
476
440
426
440
474
510
524
510
476
439
425
438
470
506
520
505
471
435
421
434
467
503
517
504
473
438
425
438
471
506
520
506
473
437
423
436
468
503
516
501
468
433
421
435
468
503
517
503
469
433
418
431
464
499
512
497
464
430
417
431
465
500
514
499
466
431
419
432
466
502
515
498
463
427
416
432
466
500
513
498
466
431
420
437
472
506
518
501
466
432
422
438
472
507
519
504
470
436
426
441
476
511
522
505
470
436
425
440
473
507
516
499
464
429
419
436
471
505
516
498
462
429
419
435
469
501
509
491
456
422
412
429
464
497
506
489
453
418
408
426
462
494
501
482
446
413
405
423
459
492
500
483
447
416
407
423
457
490
498
481
445
411
401
418
453
485
492
474
438
406
399
417
452
484
491
472
437
405
395
412
448
480
487
468
431
398
391
407
442
473
480
461
426
394
387
404
439
470
477
458
421
388
381
399
435
467
473
455
418
385
377
395
431
462
468
448
412
382
376
395
429
459
463
443
407
377
372
392
428
460
465
445
409
379
373
391
428
459
464
446
410
380
375
394
431
461
465
445
408
378
373
393
431
462
467
447
411
381
375
396
432
462
466
446
411
382
378
399
435
465
469
448
411
382
380
401
438
469
473
452
415
386
384
406
444
474
477
457
421
392
387
407
445
475
479
458
421
393
390
412
450
480
483
460
422
394
392
414
450
479
482
461
423
394
391
414
452
482
485
463
427
400
398
420
457
486
488
466
428
400
399
421
458
485
487
464
427
400
399
422
460
487
487
463
425
399
399
422
460
488
490
467
430
404
404
428
466
492
492
470
432
406
408
434
474
501
500
476
438
411
412
435
473
500
501
478
441
413
413
436
474
501
501
479
442
417
418
442
480
506
505
481
443
416
416
439
478
503
502
478
442
416
418
443
480
505
503
479
444
419
420
444
483
508
506
480
443
418
419
444
483
509
507
483
446
421
422
448
486
511
509
484
446
422
425
451
490
517
516
489
452
428
432
457
494
520
517
490
451
426
430
456
495
520
516
489
450
426
430
457
496
520
517
492
454
431
435
461
499
524
521
494
455
432
435
463
501
526
522
494
456
431
435
461
500
523
519
493
455
435
441
469
509
534
530
501
463
440
445
471
508
531
524
495
456
434
441
468
507
530
525
497
459
437
443
472
511
534
527
498
460
437
443
469
505
527
521
494
458
438
446
476
514
535
528
498
460
439
445
473
512
534
528
499
462
440
445
475
513
535
528
500
464
443
450
479
517
537
530
502
465
445
452
482
521
542
535
505
467
447
455
484
522
542
534
505
468
448
456
485
523
542
534
505
468
449
458
488
526
545
536
504
467
449
459
489
527
547
539
510
472
452
460
491
530
549
540
510
474
455
464
495
534
553
543
512
474
457
467
498
535
552
543
513
474
455
465
497
536
554
544
513
476
458
466
497
537
556
547
517
479
461
470
501
539
556
545
514
478
462
473
504
543
560
548
516
478
461
473
505
543
560
548
516
479
462
472
505
543
559
548
516
480
464
475
506
544
560
550
517
479
463
474
505
544
561
550
517
480
464
475
509
548
565
553
522
487
472
484
517
553
568
557
525
487
472
484
517
554
569
555
523
487
473
486
519
555
570
557
525
487
472
485
518
554
570
558
525
489
476
489
522
558
573
560
526
487
473
487
521
557
570
556
521
484
470
484
517
553
568
554
522
486
473
488
522
557
570
555
521
485
472
487
519
553
566
553
521
485
472
487
521
556
569
556
523
487
474
487
520
555
568
555
520
485
473
488
522
557
569
554
519
484
472
488
523
558
569
554
519
484
473
488
523
559
570
554
519
483
471
486
523
558
568
552
519
484
474
491
528
564
576
560
526
489
478
494
528
561
573
556
520
484
474
491
526
560
571
555
521
488
480
497
533
566
575
557
521
488
480
497
532
566
574
557
521
488
479
496
531
563
571
553
517
484
475
492
529
565
574
556
520
486
477
495
530
563
572
554
517
484
477
495
531
564
573
556
520
487
480
500
536
569
576
556
519
486
478
496
533
566
574
556
521
489
481
498
535
567
575
556
519
487
480
499
537
570
577
557
519
485
478
497
535
568
575
556
521
490
484
503
538
569
575
555
518
486
480
499
535
565
572
553
517
486
482
501
537
567
574
555
517
485
481
502
538
568
572
552
514
483
477
498
536
568
573
553
516
485
480
501
539
569
573
551
514
484
481
500
538
569
573
552
514
481
478
499
538
569
574
553
516
485
482
502
540
569
572
551
513
483
481
502
542
572
574
551
512
482
478
498
537
568
571
548
510
481
479
500
538
567
569
547
510
481
477
499
539
568
570
547
508
479
477
499
537
565
566
543
504
475
474
496
534
564
567
543
504
476
473
496
534
562
564
541
504
478
477
500
540
569
571
547
508
480
478
501
539
566
566
543
505
479
478
501
539
567
569
547
508
481
480
502
540
567
566
540
500
473
475
500
540
568
568
543
504
479
478
502
540
567
565
541
501
474
475
500
540
567
566
541
502
475
476
500
540
566
565
541
501
474
475
499
537
563
561
536
496
470
471
496
537
564
561
536
498
473
475
500
538
563
562
538
499
473
473
497
535
561
558
533
495
470
473
499
537
561
557
531
493
469
472
498
537
561
558
533
495
470
472
498
538
562
560
533
494
468
471
496
534
559
556
530
492
469
473
500
539
562
558
531
491
468
472
498
537
561
557
528
489
465
469
498
538
561
558
532
493
468
472
498
536
559
553
527
490
468
473
499
538
561
556
530
492
470
475
501
539
561
556
527
488
463
468
496
536
558
553
525
487
464
469
496
535
557
551
523
485
463
469
497
536
557
550
522
483
461
466
494
533
555
548
520
480
458
465
494
533
555
548
519
483
462
468
498
539
561
554
525
486
465
471
498
535
556
550
522
485
466
474
502
540
559
551
521
483
462
468
496
534
556
548
520
482
462
468
496
535
555
548
518
479
459
468
498
537
558
549
518
481
462
469
498
535
556
548
518
480
462
471
502
540
559
551
521
483
464
472
503
541
559
548
518
481
463
472
503
541
560
550
518
480
462
472
503
542
560
550
518
481
463
472
502
540
558
548
518
481
464
474
504
542
559
548
516
479
461
471
502
541
558
548
516
480
463
475
506
545
560
548
516
478
460
470
502
539
556
545
513
476
459
469
501
538
553
540
507
471
456
467
498
535
551
541
508
471
455
466
497
533
548
535
502
466
449
461
493
532
547
536
503
465
450
463
496
533
549
535
502
466
450
462
494
530
543
530
497
462
447
459
492
528
542
529
494
459
444
456
489
526
540
525
489
452
439
452
484
520
533
519
487
451
436
451
485
522
534
519
485
449
435
447
482
518
531
517
482
445
433
447
482
518
530
513
479
445
432
446
479
514
526
510
476
441
429
443
476
510
523
508
475
441
431
446
480
516
527
512
476
439
426
441
475
509
520
504
470
434
423
440
476
510
523
509
474
438
425
440
473
508
519
503
467
431
419
436
471
505
516
502
468
435
425
440
475
508
519
503
468
433
422
438
472
505
515
497
461
427
417
432
467
500
510
493
458
425
416
431
466
500
507
489
454
421
411
428
464
498
508
490
454
422
414
431
466
498
506
488
452
420
412
431
467
500
508
491
456
424
416
434
470
504
512
493
456
423
413
430
466
499
507
490
453
421
414
431
467
499
507
487
450
418
411
429
465
498
506
487
450
417
410
430
467
498
503
484
447
414
408
427
463
496
502
481
443
410
403
423
459
491
498
479
443
411
405
424
460
491
496
477
440
410
406
427
463
494
499
479
442
410
404
423
459
490
495
475
438
408
403
423
461
492
497
477
439
409
404
424
462
494
497
476
438
409
404
424
462
493
496
476
439
408
402
421
459
489
493
472
434
404
400
421
459
489
492
471
433
402
399
419
456
487
493
473
436
407
403
423
460
490
492
469
430
401
399
421
459
488
490
468
431
401
398
420
458
488
491
470
432
403
401
423
460
488
489
467
430
402
400
423
461
490
492
471
433
404
403
426
466
495
495
472
433
404
402
424
461
488
488
464
427
400
400
423
463
491
491
468
430
402
399
423
461
489
489
465
426
398
397
420
459
487
488
463
423
396
395
418
456
483
483
459
421
395
396
420
458
485
484
460
422
395
395
419
457
484
484
461
423
396
397
422
460
487
487
462
424
399
400
424
462
487
487
462
425
400
401
425
463
489
489
466
427
400
400
424
461
488
487
461
422
397
398
423
461
486
485
460
422
396
398
422
460
485
483
459
421
397
401
426
464
488
486
461
424
400
403
429
468
492
487
463
426
403
406
430
468
492
487
460
421
396
400
427
465
491
488
462
425
403
408
434
472
494
490
466
429
405
409
436
474
498
495
468
430
407
411
438
477
502
500
475
438
414
417
443
481
504
500
474
436
414
420
448
486
507
503
478
441
419
424
453
491
513
506
480
442
420
426
452
491
513
508
481
443
420
424
451
489
510
504
477
439
418
423
450
489
511
506
478
440
419
424
451
490
513
507
479
442
423
430
458
496
519
512
484
446
424
429
458
497
519
510
480
442
421
428
457
495
516
508
480
444
424
432
462
499
519
509
480
441
420
429
461
501
522
513
483
446
427
436
467
504
524
515
486
450
432
443
473
511
532
524
494
459
440
448
477
514
533
524
494
457
439
449
479
518
537
528
498
460
441
450
480
519
538
530
500
463
445
454
483
518
536
528
499
464
449
460
491
527
543
532
501
464
448
460
491
528
546
536
504
466
448
457
486
524
542
533
503
466
447
457
487
526
543
533
502
464
446
456
486
523
539
527
496
460
444
455
488
525
542
531
501
467
450
460
491
527
543
532
501
466
450
462
494
530
545
534
504
469
454
466
499
538
555
544
511
475
459
470
502
541
556
544
513
478
463
476
507
544
558
544
510
475
461
474
507
543
558
545
512
476
461
475
510
547
560
548
515
479
465
478
510
546
559
545
513
478
464
477
510
548
561
548
516
481
467
480
514
550
563
549
516
482
471
486
519
553
565
551
519
484
470
483
517
554
567
553
520
484
470
485
520
557
570
555
522
487
