544
496
450
436
459
507
555
569
546
496
450
436
460
509
556
571
547
498
452
438
461
509
556
570
546
496
449
434
458
508
556
570
546
496
449
435
459
508
555
569
545
495
447
433
458
507
556
570
546
496
448
434
456
504
551
564
541
491
446
432
454
503
551
565
541
493
448
433
455
503
549
562
538
489
442
428
450
499
546
559
535
485
438
424
447
495
543
557
534
486
441
427
450
498
547
562
539
488
441
426
449
497
544
559
537
489
441
426
448
496
544
559
537
487
439
425
449
496
543
559
536
486
440
428
451
500
546
559
536
487
441
427
450
497
547
563
540
491
444
430
453
502
550
564
541
491
444
431
454
503
551
565
543
495
448
433
454
501
549
563
539
490
443
429
453
501
548
562
537
488
442
429
452
501
549
564
540
490
443
430
453
501
549
564
540
491
444
430
453
501
549
563
540
491
444
430
454
504
552
566
542
493
447
435
460
509
557
570
547
498
450
437
462
512
559
573
548
497
451
437
460
509
559
575
550
499
452
437
461
510
558
573
550
502
456
441
463
511
558
573
550
500
454
441
464
511
558
572
548
500
454
441
465
513
560
574
551
503
456
441
463
512
560
575
552
503
456
442
465
514
561
575
552
502
456
443
467
517
565
580
557
507
458
442
466
516
564
579
554
504
458
444
468
517
564
579
555
504
459
445
469
519
566
581
558
509
463
449
472
521
566
580
556
506
458
443
467
517
566
583
560
510
463
448
472
521
569
583
560
510
463
449
473
522
568
581
557
508
462
448
471
519
565
578
554
506
461
449
472
521
569
583
559
509
462
447
470
518
566
579
555
505
460
447
471
520
565
578
553
504
460
448
472
522
569
582
558
509
463
450
472
519
566
581
558
508
462
448
472
521
566
577
553
504
457
443
467
518
564
578
554
505
458
444
468
518
565
579
555
507
462
448
472
520
567
580
556
507
461
448
471
520
566
580
557
506
461
449
476
526
571
583
559
511
464
450
472
521
567
581
558
508
462
449
472
521
566
579
554
505
459
445
470
518
564
577
552
503
457
444
469
519
566
579
554
504
458
446
471
520
567
581
558
508
462
448
472
520
567
581
556
506
461
448
472
520
565
578
555
507
461
448
472
521
568
582
558
508
461
448
473
523
570
584
559
508
463
450
472
520
567
581
557
508
462
448
472
521
568
580
557
508
462
448
470
518
565
580
556
507
461
448
472
521
568
582
558
509
461
447
470
519
566
579
557
507
461
448
472
521
569
583
560
510
463
450
473
522
570
585
560
510
462
448
470
519
565
579
556
507
461
448
472
521
568
581
557
508
461
447
471
520
568
582
558
508
462
447
469
517
566
581
557
507
460
446
469
518
565
579
556
506
462
449
472
519
566
581
559
510
465
450
473
522
568
581
555
505
459
445
470
520
567
580
556
508
463
450
474
523
569
582
558
509
463
449
471
518
563
577
553
505
462
449
473
521
568
581
557
508
463
449
473
522
568
580
555
506
460
446
469
518
566
580
556
507
462
448
472
521
568
581
558
509
463
450
473
520
567
580
556
506
460
447
472
520
566
580
556
508
462
448
469
517
564
577
554
506
460
446
470
519
566
579
556
506
459
445
468
519
565
578
554
506
460
447
471
519
565
578
553
503
457
444
468
518
566
580
555
506
460
446
469
517
563
574
551
504
458
445
469
518
565
579
557
508
461
446
469
518
564
577
554
505
459
445
469
517
562
576
552
504
458
445
470
521
568
582
558
509
463
448
472
519
564
577
552
503
459
446
470
519
565
578
554
505
459
445
469
519
565
579
554
503
457
443
466
517
566
581
557
508
462
448
472
521
569
583
558
507
461
447
472
523
570
584
560
510
463
448
472
523
568
581
556
506
459
447
471
519
566
579
556
509
463
449
473
523
570
582
556
505
458
444
469
521
567
580
558
509
463
449
472
520
567
580
556
507
461
448
471
520
566
578
553
503
456
444
470
521
568
580
555
506
461
447
471
522
569
581
555
504
458
446
472
522
569
583
560
510
462
447
468
518
565
579
554
505
459
445
468
517
564
578
555
505
459
445
469
518
565
578
553
502
457
444
468
517
564
578
555
507
462
448
469
517
563
575
552
503
458
445
469
517
563
576
552
503
456
443
466
515
561
576
553
504
459
445
469
518
565
577
553
505
459
446
471
522
568
582
559
509
462
447
471
522
569
582
558
508
461
447
470
518
563
577
554
506
462
449
472
522
569
583
558
508
463
450
475
524
569
582
558
509
462
446
469
518
565
579
553
504
458
445
468
518
566
580
558
507
461
448
472
520
566
579
555
506
460
446
470
519
566
580
555
505
460
445
469
518
564
577
554
505
459
446
471
519
565
577
554
505
461
448
471
521
568
581
556
507
461
447
470
518
565
581
559
511
464
449
472
521
567
580
555
506
462
448
473
523
570
584
559
508
460
446
470
520
566
579
556
506
459
444
467
518
565
578
554
505
458
444
467
517
564
578
552
501
455
442
467
516
562
576
552
501
454
440
464
513
560
574
551
503
458
447
472
521
568
581
555
505
459
445
469
520
567
580
556
506
459
444
467
516
563
577
552
500
453
439
463
513
560
574
550
500
454
440
463
513
560
573
548
499
453
441
464
514
562
576
553
503
458
444
466
514
560
575
552
502
456
444
468
518
568
583
558
507
460
444
468
518
566
580
555
504
458
444
466
515
561
575
553
505
459
446
470
517
563
578
555
505
457
442
467
517
564
577
553
503
458
445
469
516
561
574
550
503
458
445
470
519
564
577
555
508
462
447
471
520
567
580
555
505
459
446
470
519
564
578
553
503
457
445
470
519
564
577
552
502
455
441
464
512
560
574
551
501
456
443
467
517
565
579
554
504
457
443
469
519
566
578
552
501
456
443
468
517
564
578
554
505
459
445
469
519
566
579
554
505
459
444
465
513
559
574
551
502
455
442
466
515
563
576
552
503
456
440
462
509
556
571
550
502
456
442
466
516
562
577
553
504
458
444
467
516
563
577
553
503
457
443
468
517
563
577
553
502
456
443
466
514
561
576
554
503
456
443
466
514
562
577
553
503
455
443
468
517
563
575
548
497
451
438
462
512
558
572
547
497
451
438
462
512
559
570
546
497
451
438
463
513
558
571
547
497
450
437
461
509
556
569
544
495
450
438
462
509
554
568
544
495
449
437
461
508
555
569
545
495
448
434
458
508
557
571
547
497
452
438
462
510
556
569
546
498
451
437
461
510
557
569
546
498
452
438
462
512
559
572
547
497
453
442
466
513
559
572
549
499
452
439
463
514
561
574
551
501
455
441
465
514
559
571
547
497
451
438
462
509
556
569
544
495
448
435
461
510
557
571
547
498
453
441
466
515
561
573
549
499
452
438
462
509
556
569
545
497
453
441
465
513
560
574
550
500
453
439
463
512
558
570
547
501
456
443
466
515
560
574
550
499
452
440
464
514
561
574
551
502
457
443
466
515
562
575
551
502
456
443
467
516
562
576
551
501
454
441
466
515
562
574
550
500
454
441
464
513
560
575
552
503
459
446
470
521
568
581
557
508
461
447
471
520
567
581
557
506
460
449
473
521
566
580
558
510
463
450
474
522
567
579
556
505
460
447
472
523
568
580
556
508
464
451
475
523
569
583
559
510
464
449
472
521
566
578
554
506
460
447
469
517
563
576
553
505
459
444
468
517
563
575
551
502
455
444
468
517
562
575
549
499
453
441
467
516
562
575
551
502
456
442
465
513
559
572
548
500
455
443
467
514
560
574
549
500
454
442
466
516
563
575
550
501
455
440
461
509
556
569
545
496
451
437
460
508
556
570
548
499
454
441
464
512
560
573
549
500
456
442
463
510
556
570
546
496
450
437
461
509
556
567
542
493
448
433
456
505
552
566
542
494
449
437
462
510
556
569
543
494
449
436
460
508
556
569
545
495
450
438
463
511
555
567
543
494
449
436
460
508
556
570
546
497
452
438
461
508
554
567
543
495
449
435
458
506
553
567
544
495
449
434
458
507
554
568
544
495
450
437
459
506
552
565
541
493
448
433
456
504
551
565
542
492
447
435
459
508
555
569
545
497
451
437
459
507
553
566
542
494
449
436
460
508
554
568
546
498
454
440
464
512
558
571
547
497
452
440
464
513
560
573
550
501
456
442
465
514
559
573
549
500
454
442
466
516
563
577
554
506
460
446
468
516
562
574
549
501
456
442
465
513
558
571
547
499
453
440
464
513
559
572
549
501
457
444
467
516
562
576
551
501
454
441
464
511
557
570
546
498
454
443
466
514
560
574
551
503
458
444
467
515
561
574
551
502
456
442
466
515
561
574
550
500
454
440
464
513
560
573
551
502
457
444
468
516
561
574
551
504
458
446
468
517
564
578
555
506
460
446
468
515
561
575
551
503
459
446
470
521
568
580
555
506
461
448
471
517
563
577
554
505
460
447
470
517
562
576
552
503
457
443
466
514
560
573
549
501
456
443
467
515
560
572
548
500
454
440
464
511
557
569
545
498
453
441
465
514
559
573
549
500
455
441
466
516
563
576
551
502
458
446
469
518
565
578
552
502
456
442
465
514
559
572
548
500
455
442
466
515
562
576
554
505
459
447
472
522
566
578
553
503
457
443
465
513
558
571
547
499
453
439
462
510
557
571
548
500
455
443
465
514
559
574
551
503
456
441
465
514
560
574
551
503
459
445
469
518
565
579
555
505
460
446
469
517
562
575
551
501
455
441
464
513
559
572
548
499
455
443
467
515
560
574
551
504
459
445
468
517
562
575
551
503
457
445
469
518
564
578
553
503
458
446
469
519
565
578
554
504
459
446
469
518
564
578
555
506
461
446
468
516
562
575
552
502
458
446
470
518
564
579
555
507
462
450
474
522
567
582
558
509
464
449
471
520
565
577
554
506
463
449
473
522
568
580
556
508
462
449
473
522
568
581
556
506
460
447
472
521
567
581
558
509
462
449
473
523
569
582
558
509
462
449
473
521
567
580
556
505
459
445
469
517
565
578
553
504
458
443
464
513
560
574
549
501
455
441
464
512
559
574
551
503
458
444
467
516
562
576
551
502
457
444
466
515
562
575
552
503
457
444
468
517
563
577
555
506
460
445
468
517
563
577
554
507
463
450
474
522
567
580
557
507
461
448
472
520
566
579
557
509
463
450
473
519
564
577
555
508
464
451
474
523
570
585
561
513
467
451
473
521
568
582
560
511
466
453
477
525
571
584
560
512
467
453
476
523
569
582
559
512
466
452
475
524
570
584
560
512
465
450
473
522
568
582
558
508
462
447
470
519
566
581
557
508
462
448
472
520
566
580
557
508
463
451
474
524
571
584
560
510
465
451
473
521
566
579
555
506
461
446
470
520
567
580
557
510
464
450
473
521
567
581
556
506
460
447
471
520
566
579
556
508
462
447
469
518
566
581
555
505
458
445
468
516
563
576
552
506
461
447
469
518
563
574
550
502
458
447
471
519
566
579
556
507
460
446
471
520
567
580
556
507
460
447
470
519
567
582
559
510
464
450
473
521
567
580
558
510
465
451
473
522
568
582
558
508
460
446
469
517
563
576
552
504
459
446
469
518
564
579
555
505
460
446
469
517
565
580
557
509
462
447
469
518
563
576
552
503
458
445
468
517
564
578
556
507
461
446
469
517
563
576
553
506
460
445
468
516
561
575
553
506
460
446
469
516
563
577
554
505
460
445
467
516
563
577
553
505
460
446
469
518
564
578
553
504
459
445
468
516
563
578
556
507
461
445
467
515
561
576
552
503
457
443
466
514
561
576
555
508
462
448
472
520
566
579
555
506
459
444
466
515
561
575
551
503
458
444
466
515
562
576
553
504
458
444
467
514
560
573
551
504
459
445
469
519
565
579
555
505
459
445
468
516
562
577
554
505
459
445
467
515
562
576
553
505
458
444
468
516
563
577
554
505
458
445
468
515
560
573
550
502
456
441
464
510
556
571
550
503
457
442
465
513
559
574
551
503
457
443
465
512
560
576
554
505
460
447
469
516
561
574
552
505
459
443
466
513
559
573
550
502
457
443
466
514
561
575
552
504
458
444
466
513
558
570
547
499
454
439
461
508
556
572
549
500
454
439
460
507
556
572
550
501
454
439
462
510
558
572
549
501
456
442
465
514
562
577
555
506
459
444
466
513
559
575
554
506
461
447
470
519
567
582
560
512
465
448
468
516
562
577
555
506
460
446
468
516
564
579
556
507
460
444
467
516
563
579
558
510
464
448
468
515
562
578
556
508
463
447
468
515
563
579
556
507
461
446
468
517
566
582
559
510
464
450
472
519
564
577
554
506
462
448
471
521
569
583
560
512
464
448
470
517
564
578
556
508
462
447
468
516
563
578
557
508
461
446
468
515
562
578
556
507
460
446
468
516
564
580
558
509
462
447
469
516
561
576
554
506
459
443
465
512
561
576
554
508
462
446
468
517
564
580
557
507
458
441
463
510
558
574
552
505
460
446
468
514
561
576
553
506
460
444
466
515
562
579
