499
438
442
480
534
568
565
529
474
439
444
482
537
571
566
528
473
438
441
478
531
566
561
525
471
437
441
478
533
568
564
526
471
435
438
474
528
564
561
524
471
435
438
473
527
564
560
523
469
434
438
476
529
562
556
517
462
426
430
468
522
557
554
517
462
426
429
466
521
555
552
515
461
424
427
464
519
555
551
513
459
423
427
463
517
553
549
513
460
423
424
458
511
548
545
508
454
417
420
457
513
549
547
512
458
422
423
458
511
547
544
508
455
419
421
457
510
548
547
511
457
420
423
459
512
550
548
512
457
422
425
460
512
548
546
511
458
424
427
461
513
549
547
510
458
421
424
460
513
551
550
514
460
424
427
464
519
556
553
518
465
428
429
464
518
556
555
519
465
430
431
465
520
559
558
521
467
431
432
467
522
560
558
523
470
433
435
470
523
560
559
524
471
434
434
468
523
560
559
523
467
430
433
469
523
561
560
525
471
432
432
466
521
560
559
524
470
433
434
468
522
559
558
523
469
432
433
469
522
560
559
525
471
433
435
471
526
565
565
530
476
438
439
474
528
567
565
530
478
442
444
480
533
570
568
534
481
444
444
479
532
570
570
535
481
444
443
478
531
571
572
536
482
443
443
478
531
568
568
536
482
444
444
480
534
571
571
535
482
444
445
480
534
572
573
539
484
445
444
478
532
572
572
537
483
445
445
480
534
573
573
538
485
448
449
483
537
575
575
540
486
447
446
479
533
572
572
539
487
448
446
479
534
574
576
543
489
449
449
482
537
576
578
544
490
451
449
483
537
578
580
545
490
451
450
483
538
579
581
546
492
452
450
482
536
577
578
544
491
451
449
483
539
580
582
547
492
452
449
481
535
576
580
549
496
456
453
486
539
578
580
546
493
453
450
482
535
575
579
546
493
453
451
483
537
578
581
548
493
451
447
479
532
574
578
546
494
454
451
483
537
577
580
547
493
452
449
482
536
577
579
545
490
450
447
479
531
570
573
542
490
450
447
479
533
573
576
544
490
450
446
479
532
574
578
546
492
450
445
477
531
573
577
545
491
450
445
477
529
570
573
542
490
450
447
478
531
572
577
545
490
450
447
479
532
573
577
547
494
454
450
482
534
575
580
551
498
457
453
484
538
579
583
551
496
454
448
480
533
574
578
547
494
453
450
482
535
575
579
546
491
449
445
476
529
571
575
544
492
452
447
479
532
574
578
546
493
451
446
477
531
574
578
547
494
454
449
480
534
576
579
548
495
452
447
478
532
575
580
549
496
453
449
480
533
575
580
548
495
453
447
477
529
572
576
545
492
451
446
478
531
572
577
545
492
450
445
476
530
572
578
547
493
452
448
480
534
576
580
548
493
451
446
475
528
572
579
548
495
453
446
476
529
572
579
549
497
455
450
480
532
575
583
553
498
454
448
478
533
577
584
554
500
457
450
480
532
575
580
550
496
454
447
477
530
573
581
551
496
453
447
475
527
570
577
548
496
454
447
477
531
575
583
554
499
455
448
477
529
574
581
551
496
451
444
475
527
572
579
550
499
455
447
476
527
570
577
548
495
452
444
473
526
570
580
551
497
453
444
472
524
568
576
547
496
454
448
477
527
569
575
546
495
452
444
472
525
569
577
549
497
453
444
472
525
569
577
549
498
455
447
476
528
573
583
554
500
455
445
474
526
570
579
550
498
455
448
476
528
572
580
552
500
455
445
473
526
570
578
550
497
454
445
473
527
572
580
551
499
457
448
475
526
571
579
550
498
454
445
474
526
571
580
550
498
453
443
471
523
566
575
548
496
452
443
473
526
572
580
552
501
457
447
474
525
569
578
549
496
452
442
469
520
565
576
551
500
456
449
478
530
575
584
556
504
460
449
476
527
573
583
554
501
456
446
473
525
570
581
555
504
460
450
478
529
574
584
555
502
457
446
472
523
568
577
551
499
454
444
470
522
568
578
551
500
455
445
472
524
570
581
555
503
457
445
471
523
568
580
555
503
457
447
474
525
570
581
553
500
454
444
470
523
570
582
555
503
458
447
473
525
572
583
557
506
460
447
472
523
569
580
553
503
458
447
472
521
567
579
552
501
455
444
470
519
566
578
552
500
454
442
469
521
567
578
553
503
458
445
470
520
567
581
556
504
457
444
470
520
567
580
555
503
456
442
468
520
569
581
555
502
455
443
468
519
567
581
554
502
454
442
469
521
568
580
554
503
456
442
467
518
564
577
553
503
457
445
471
522
569
581
555
505
459
447
472
523
570
582
557
506
459
444
468
517
566
580
555
504
459
446
470
521
568
580
554
504
456
442
467
517
565
579
553
502
456
443
468
519
567
581
556
505
458
443
466
515
562
576
552
501
456
443
468
519
567
581
557
507
459
444
467
517
566
581
555
505
460
446
469
517
564
578
553
501
454
440
464
515
564
581
557
506
459
445
468
518
566
580
555
504
457
443
468
518
565
579
554
504
457
443
466
516
564
579
556
506
457
442
465
515
563
579
557
506
457
440
463
512
560
576
553
504
458
443
465
515
566
581
556
504
454
439
462
512
561
577
555
505
457
441
463
512
560
575
552
503
455
439
461
510
560
578
556
507
460
445
468
517
565
580
557
506
458
440
462
511
560
576
554
505
458
441
464
514
563
579
556
505
457
442
465
515
563
577
553
503
455
439
461
510
560
577
556
507
458
443
466
515
564
581
558
508
458
441
464
514
564
580
558
507
458
442
465
515
565
582
559
508
460
444
464
512
560
578
556
508
461
444
465
513
562
580
558
509
461
444
465
514
562
578
556
507
458
441
462
510
560
578
557
508
459
442
464
512
561
580
558
510
461
443
465
513
563
581
559
509
461
444
464
513
564
582
560
512
463
444
466
514
563
580
559
510
461
444
464
515
566
584
563
513
462
444
464
512
562
580
558
510
461
442
462
509
560
578
557
509
459
441
461
508
559
578
557
507
458
441
464
511
559
578
558
509
459
442
463
510
559
578
559
512
464
445
466
515
564
581
559
510
460
442
463
511
561
582
564
517
466
447
465
512
563
583
562
513
464
445
466
513
564
584
565
516
465
445
465
512
563
582
562
514
465
446
465
511
560
580
559
510
457
437
455
502
553
572
553
505
454
433
451
498
548
567
548
501
452
433
452
499
550
569
549
502
451
430
449
495
546
568
549
500
449
429
448
496
547
568
548
500
450
429
447
493
543
564
546
499
450
429
447
493
543
564
545
498
448
427
446
493
543
564
545
498
450
431
448
493
543
564
546
499
449
427
445
491
541
562
544
497
448
428
448
494
546
567
551
504
455
434
451
496
546
567
549
503
453
433
449
495
546
567
547
499
449
427
445
492
544
567
550
502
451
429
447
494
544
567
550
505
456
436
454
499
551
574
556
511
462
440
458
505
555
577
560
515
465
444
461
506
557
579
562
517
468
446
462
507
557
580
564
521
473
453
471
516
566
589
572
527
479
458
475
520
570
590
573
529
479
458
474
519
568
591
576
531
481
458
474
517
565
588
572
528
478
455
469
509
558
580
565
523
474
453
468
512
560
583
569
528
479
456
471
512
560
581
564
523
475
453
465
505
553
576
560
517
468
444
456
497
545
568
553
512
465
443
455
493
538
559
545
504
457
433
443
480
527
550
537
497
451
427
437
474
518
539
525
486
442
420
430
465
508
529
516
478
432
408
416
449
489
508
494
457
413
389
397
428
467
484
471
435
393
370
375
404
441
459
448
414
373
350
355
383
418
435
423
390
349
325
330
357
390
406
393
360
322
300
306
331
363
380
370
338
299
277
280
304
334
349
339
309
272
251
255
279
308
322
311
283
248
227
230
251
280
293
283
254
220
200
201
221
248
263
254
229
198
179
182
202
227
238
228
202
171
152
154
172
195
205
197
171
140
122
124
141
164
175
167
143
112
95
95
112
135
148
140
117
89
73
74
90
111
122
113
91
65
50
53
70
92
103
96
74
47
30
31
46
66
77
70
48
25
14
9
19
39
49
41
22
12
6
4
3
5
8
5
3
2
1
1
1
1
1
1
1
1
1
1
1
1
1
1
1
1
1
1
1
1
1
1
1
1
1
1
1
1
1
1
1
1
1
1
1
1
1
1
1
1
1
1
1
1
1
1
1
1
1
1
1
0
1
1
1
1
1
1
1
1
1
1
1
1
1
1
1
0
1
0
1
1
0
1
1
1
1
1
0
0
1
1
1
1
1
1
1
0
1
1
1
1
1
1
1
1
0
1
1
1
1
1
1
1
1
1
1
1
0
1
1
1
1
1
1
1
1
0
1
1
1
1
0
1
1
1
1
1
1
1
1
1
0
1
0
1
1
1
0
1
1
0
1
1
1
1
1
1
1
0
1
1
1
1
1
1
1
0
1
1
1
1
1
1
1
1
1
1
1
1
1
1
1
1
1
1
1
1
1
1
1
1
1
1
1
1
1
1
1
1
1
0
0
1
1
1
0
0
1
1
1
0
1
0
1
1
1
1
0
0
1
0
1
1
1
1
0
0
1
1
1
1
1
1
1
1
1
1
0
1
1
1
1
1
1
1
1
1
1
0
0
1
1
1
1
1
0
0
1
1
0
0
1
1
0
1
1
1
0
1
1
1
1
0
1
1
1
0
1
0
1
0
1
1
1
1
1
1
1
1
1
1
1
1
0
0
0
0
1
0
1
0
0
1
0
0
1
1
1
0
1
1
1
1
1
1
1
1
1
0
1
1
1
1
1
1
1
1
1
0
0
0
1
0
1
1
0
1
1
0
1
1
1
1
1
1
1
1
1
0
1
1
1
1
1
1
1
1
1
1
0
1
1
1
1
0
0
1
1
1
1
1
1
0
0
1
0
0
1
1
1
1
1
1
1
1
0
1
1
1
0
1
1
1
0
1
0
1
1
1
1
0
0
1
1
1
1
1
1
1
1
1
1
1
1
1
1
1
1
1
1
1
1
1
0
0
1
1
1
1
1
1
1
1
1
1
1
1
1
1
1
1
1
0
1
1
1
1
1
1
1
1
1
1
1
1
1
1
1
1
1
1
1
1
1
1
1
1
1
1
1
1
1
1
1
1
1
1
1
1
1
1
1
1
1
1
1
1
1
1
1
1
1
1
1
1
1
1
1
1
1
1
1
1
1
2
3
5
6
7
8
10
11
12
13
15
16
17
18
19
21
22
23
24
26
27
28
29
30
32
33
34
35
36
37
39
40
41
42
43
45
46
47
48
49
50
52
53
54
55
56
57
58
59
61
62
63
64
65
66
67
68
69
71
72
73
74
75
76
77
78
79
80
81
82
83
84
85
86
87
89
90
91
92
93
94
95
96
97
98
99
100
101
102
103
104
105
106
107
108
109
110
111
112
113
114
115
116
117
118
119
120
121
122
123
124
125
126
127
128
129
129
131
131
132
133
134
135
136
137
138
139
140
141
142
143
144
144
145
146
147
148
149
150
151
152
152
153
154
155
156
157
158
158
159
160
161
162
163
164
164
165
166
167
168
169
170
170
171
172
173
174
174
175
176
177
178
178
179
180
181
182
183
183
184
185
186
187
188
188
189
190
191
191
192
193
194
194
195
196
197
198
198
199
200
201
202
202
203
204
204
205
206
207
207
208
209
210
210
211
212
212
213
214
215
215
216
217
218
218
219
220
220
221
222
223
223
224
225
225
226
227
227
228
229
230
230
231
232
232
233
234
234
235
236
236
237
238
238
239
239
240
241
241
242
243
243
244
245
245
246
247
247
248
249
249
250
251
251
252
253
253
254
254
255
256
256
257
258
258
259
260
260
261
261
262
263
263
264
264
265
266
266
267
267
268
269
269
270
270
271
271
272
273
273
274
274
275
276
276
277
277
278
278
279
279
280
281
281
282
282
283
283
284
284
285
286
286
286
287
288
288
289
289
290
290
291
291
292
292
293
294
294
294
295
295
296
297
297
298
298
299
299
300
300
301
301
302
302
303
303
304
304
305
305
305
306
307
307
307
308
308
309
309
310
310
311
311
312
312
313
313
314
314
315
315
316
316
317
317
318
318
319
319
319
320
320
321
321
322
322
322
323
323
324
324
325
325
326
326
326
327
327
328
328
329
329
329
330
330
331
331
332
332
332
333
333
334
334
335
335
335
336
336
337
337
337
338
338
339
339
339
340
340
341
341
341
342
342
343
343
344
344
344
345
345
346
346
346
347
347
347
348
348
349
349
349
350
350
351
351
351
352
352
352
353
353
353
354
354
355
355
355
356
356
356
357
357
357
358
358
359
359
359
360
360
360
361
361
361
362
362
362
363
363
364
364
364
365
365
365
366
366
366
366
367
367
367
368
368
368
369
369
370
370
370
370
371
371
371
372
372
372
373
373
374
374
374
375
375
375
376
376
376
376
377
377
377
378
378
378
379
379
379
380
380
380
380
381
381
381
382
382
382
383
383
383
384
384
384
384
385
385
385
386
386
386
386
387
387
387
388
388
388
388
389
389
389
390
390
390
391
391
391
391
391
392
392
392
393
393
393
393
394
394
394
395
395
395
395
396
396
396
396
397
397
397
397
398
398
398
399
399
399
399
400
400
400
400
400
401
401
401
401
402
402
402
403
403
403
403
403
404
404
404
404
405
405
405
405
406
406
406
406
407
407
407
407
408
408
408
408
408
409
409
409
409
410
410
410
410
411
411
411
411
412
412
412
412
412
413
413
413
413
414
414
414
414
414
415
415
415
415
416
416
416
416
416
417
417
417
417
417
417
418
418
418
418
419
419
419
419
419
420
420
420
420
420
421
421
421
421
422
422
422
422
422
422
423
423
423
423
423
424
424
424
424
425
425
425
425
425
425
426
426
426
426
426
427
427
427
427
427
428
428
428
428
428
428
429
429
429
429
429
430
430
430
430
430
430
431
431
431
431
431
432
432
432
432
432
432
432
433
433
433
433
433
434
434
434
434
434
434
435
435
435
435
435
435
436
436
436
436
436
436
437
437
437
437
437
437
438
438
438
438
438
438
439
439
439
439
439
439
440
440
440
440
440
440
440
441
441
441
441
441
441
441
442
442
442
442
442
442
443
443
443
443
443
443
444
444
444
444
444
444
444
444
445
445
445
445
445
445
445
446
446
446
446
446
446
446
447
447
447
447
447
447
447
448
448
448
448
448
448
448
448
449
449
449
449
449
449
449
450
450
450
450
450
450
450
450
451
451
451
451
451
451
451
451
452
452
452
452
452
452
452
452
453
453
453
453
453
453
457
464
462
458
456
455
455
454
455
455
455
456
460
460
458
456
457
476
485
475
466
461
460
465
479
482
477
473
473
479
473
465
461
459
461
468
466
475
491
499
513
506
509
515
520
528
540
542
518
504
508
521
515
516
509
489
480
507
535
559
573
566
563
557
553
542
554
574
571
564
557
560
569
580
578
586
581
574
583
572
569
573
572
574
590
585
596
624
630
621
623
638
653
662
671
675
662
652
664
716
795
870
958
1023
1023
1023
1023
1023
1023
918
805
721
646
594
560
536
533
564
605
642
668
676
704
726
723
723
721
718
722
729
740
751
758
753
744
750
767
780
780
782
779
771
768
779
799
812
815
818
816
804
804
824
845
862
872
874
881
883
868
837
828
837
846
841
834
830
832
826
827
829
835
836
837
836
841
856
848
861
871
876
872
864
878
894
907
902
891
906
940
937
906
893
905
901
908
917
923
912
899
904
908
918
942
958
987
1000
1011
1023
1023
1023
1023
1023
1023
1023
1023
1023
1012
1004
1005
1005
1011
1021
1023
1020
1000
977
965
952
937
923
932
950
964
976
984
963
934
907
883
872
863
855
867
880
867
854
841
842
853
865
870
892
919
932
932
923
894
894
910
909
897
928
936
923
922
932
939
948
951
935
942
953
956
960
960
953
932
939
967
987
988
966
931
923
933
948
945
940
951
965
965
965
968
972
952
941
938
924
924
936
970
977
960
943
941
947
959
971
960
944
932
945
974
984
980
964
966
973
974
984
985
981
970
963
969
974
969
960
963
980
981
974
961
974
993
987
988
998
1004
1001
994
995
999
998
1023
1023
1023
1023
1023
1023
1023
1023
1023
1004
997
997
1003
1011
1023
1023
1023
1023
1023
1023
1023
1023
1023
1023
1023
1023
1023
1023
1023
1023
1018
1014
1015
1023
1023
1023
1023
1023
1015
1012
1006
1013
1023
1023
1023
1023
1023
1023
1020
1023
1023
1023
1023
1023
1023
1023
1023
1023
1023
1023
1023
1023
1023
1023
1023
1023
1023
1023
1023
1023
1023
1023
1023
1023
1023
1023
1023
1023
1023
1023
1023
1023
1023
1023
1023
1023
1023
1023
1023
1023
1023
1023
1023
1023
1023
1023
1023
1023
1023
1023
1023
1023
1023
1023
1023
1023
1023
1023
1023
1023
1023
1023
1023
1023
1023
1023
1023
1023
1023
1023
1023
1023
1023
1023
1023
1023
1023
1023
1023
1023
1023
1023
1023
1023
1023
1023
1023
1023
1023
1023
1023
1023
1023
1023
1023
1023
1023
1023
1023
1023
1023
1023
1023
1023
1023
1023
1023
1023
1023
1023
1023
1023
1023
1023
1023
1023
1023
1023
1023
1023
1023
1023
1023
1023
1023
1023
1023
1023
971
926
926
934
940
936
940
962
978
995
1013
1023
1023
1023
1023
1023
1023
1023
1023
1023
1023
1023
1023
1023
1023
1023
1023
1023
1023
1023
1023
1023
1023
1023
1023
1023
1023
1023
1023
1023
1023
1023
1023
1023
1023
1023
1023
1023
1023
1023
1023
1023
1023
1023
1023
1023
1023
1023
1023
1023
1023
1023
1023
1023
1023
1023
1023
1023
1023
1023
1023
1023
1023
1023
1023
1023
1023
1023
1023
1023
1023
1023
1023
1023
1023
1023
1023
1023
1023
1023
1023
1023
1023
1023
1023
1023
1023
1023
1023
1023
1023
1023
1023
1023
1023
1023
1023
1023
1023
1023
1023
1023
1023
1023
1023
1018
1012
1009
1013
1008
982
943
916
920
915
919
921
912
913
910
897
883
883
880
888
897
900
880
871
851
854
879
892
893
887
892
896
894
879
869
858
865
878
876
864
867
870
871
876
883
875
878
911
934
927
929
923
916
929
945
923
904
925
928
925
918
911
901
907
937
961
951
949
944
947
970
971
948
928
952
984
988
990
997
1013
1013
981
963
949
947
945
947
959
967
959
952
954
966
973
978
988
985
969
952
940
948
970
983
975
965
973
978
976
963
940
937
949
963
968
968
948
950
961
965
952
926
922
932
945
953
984
1001
1003
984
972
975
974
974
978
976
996
1014
1017
1023
998
983
990
1000
987
989
988
1006
1023
1023
1009
976
948
952
958
952
955
971
991
985
972
972
976
998
1012
1019
996
976
967
964
967
970
962
958
968
983
988
991
977
968
950
934
921
932
951
977
982
973
969
956
956
950
951
962
972
975
981
969
977
986
968
945
954
963
958
957
966
978
974
977
975
960
950
957
958
958
956
974
976
962
974
1012
1023
993
934
919
938
950
964
978
953
941
975
979
977
973
975
976
971
969
953
926
918
930
942
927
938
953
967
949
936
935
926
930
954
961
960
954
945
931
931
938
932
930
977
1009
987
953
928
946
958
950
959
968
983
980
982
987
986
970
965
966
944
929
930
937
951
986
996
1003
1023
1023
1023
1023
1023
1023
1023
1023
1023
1023
1023
963
878
820
778
735
739
750
746
747
743
767
802
827
845
866
886
886
866
855
863
878
880
872
857
861
868
875
887
891
889
891
900
903
893
888
883
885
911
908
885
901
915
909
891
862
860
883
890
894
887
876
869
879
904
912
902
878
853
863
877
869
846
837
853
861
867
875
897
899
878
863
865
852
883
918
924
897
885
871
858
872
892
914
931
924
915
906
901
903
911
914
901
901
909
911
913
901
904
913
907
894
895
900
896
897
907
879
829
819
847
838
834
828
824
813
786
780
772
747
711
688
699
718
712
689
669
656
644
629
610
605
610
618
606
596
607
627
657
652
647
623
582
567
573
586
618
649
657
661
664
659
660
661
661
657
660
669
687
709
705
705
721
732
736
722
713
724
731
738
737
727
749
765
746
735
733
760
784
785
762
746
747
770
769
753
757
756
757
758
738
726
746
773
791
801
796
793
780
771
758
741
747
777
785
793
786
769
760
756
756
740
742
734
713
725
743
766
781
784
769
745
722
704
707
725
744
759
765
773
771
767
752
746
737
721
725
731
747
756
749
745
737
723
725
710
689
685
691
694
712
727
743
750
725
699
674
660
693
704
705
713
730
740
708
682
684
700
711
716
693
662
676
686
701
719
721
715
716
734
740
719
703
694
699
723
750
748
717
687
684
691
680
656
671
708
731
747
752
751
745
740
743
757
755
737
727
737
764
773
749
733
711
687
696
711
718
730
747
755
750
735
718
725
740
745
737
732
735
721
701
717
750
769
760
735
721
705
702
714
733
746
754
752
758
768
776
788
787
765
740
716
715
734
744
744
746
747
742
729
726
713
707
720
732
734
744
745
745
738
729
729
726
724
726
697
674
669
669
681
696
716
722
711
714
718
709
700
707
707
688
692
715
715
722
732
761
815
846
908
1003
1023
1023
1023
1023
1023
1023
932
822
708
617
553
521
522
520
517
517
529
572
624
659
679
691
716
726
723
719
708
694
682
684
690
691
700
722
733
705
678
677
676
676
675
685
712
724
730
739
734
755
785
783
746
730
742
733
723
711
708
729
737
728
720
714
718
738
737
714
709
730
764
791
792
778
772
757
762
755
745
729
722
736
763
785
801
808
814
784
764
763
781
796
807
825
829
821
827
812
806
824
838
848
831
814
785
778
806
827
835
827
810
801
805
823
833
832
821
822
816
802
803
797
788
778
751
752
780
770
720
674
659
667
668
667
668
645
626
619
605
603
608
609
610
603
598
606
603
590
584
592
588
578
574
583
590
591
588
586
582
582
579
587
587
590
586
587
587
595
595
592
593
602
638
645
614
599
625
622
606
605
622
641
643
612
591
614
633
640
648
650
644
629
638
643
639
659
670
675
671
663
667
679
669
659
656
666
690
686
676
673
673
695
709
708
689
674
682
684
682
677
691
709
708
701
718
725
694
688
729
745
708
687
696
727
747
757
749
743
736
729
711
706
721
734
731
720
714
717
732
733
719
722
711
715
695
670
673
701
720
728
702
702
700
698
697
704
693
686
690
707
724
730
735
722
691
681
688
691
701
704
711
723
712
707
717
718
709
699
700
692
681
673
667
670
686
707
712
708
717
710
696
682
685
695
705
689
667
672
667
661
668
691
695
685
671
659
654
650
650
650
631
631
647
658
646
641
639
636
629
628
624
634
635
632
619
615
604
602
625
637
635
632
619
606
587
596
628
643
632
627
626
617
595
568
550
551
562
567
579
579
575
563
559
576
596
586
563
568
589
602
616
622
610
600
599
595
602
608
599
596
609
614
613
625
634
617
595
583
588
597
613
625
619
616
638
652
658
645
633
602
587
607
616
623
613
598
599
612
620
634
647
644
609
583
588
585
583
586
590
587
592
595
595
615
671
675
681
707
767
863
962
1023
1023
1023
1023
1021
921
812
713
626
539
481
464
447
434
451
477
490
509
529
557
577
599
603
602
598
590
588
602
592
589
602
596
590
590
579
577
588
603
612
621
647
666
653
630
608
585
591
584
586
617
629
625
632
630
631
642
626
623
632
625
614
603
610
623
623
626
629
640
638
624
620
620
615
619
619
621
629
629
638
649
647
659
679
677
681
688
695
685
672
675
679
663
652
671
690
690
682
667
642
637
660
679
687
688
691
691
689
674
679
668
655
642
625
616
623
638
627
611
606
595
585
580
583
601
593
560
539
523
520
525
538
546
525
481
466
454
451
447
436
420
420
431
447
467
455
423
404
408
417
417
422
431
449
454
440
420
431
439
434
420
418
442
472
485
475
470
468
460
452
460
461
463
471
463
462
466
489
502
509
513
523
523
511
502
487
479
472
472
484
494
495
498
505
504
501
507
512
518
527
521
524
528
515
503
491
485
503
515
498
479
496
506
493
467
471
495
512
504
498
506
504
506
505
489
495
481
481
495
512
523
514
510
533
538
521
507
509
510
525
549
546
528
500
479
503
527
537
537
534
540
534
526
524
515
520
539
535
516
513
527
540
558
551
536
544
559
560
555
546
522
514
531
546
554
535
511
521
539
534
520
522
516
529
527
527
529
526
520
517
501
493
496
513
527
544
548
529
515
503
492
476
494
534
543
533
531
517
526
542
522
508
523
528
529
520
500
513
544
564
559
535
520
541
550
552
542
533
539
546
533
518
515
529
535
544
542
530
520
519
523
521
520
532
532
549
564
564
561
574
578
572
581
570
529
510
523
529
529
529
549
564
562
541
525
524
529
525
514
536
562
571
581
583
568
562
562
570
565
562
563
570
569
577
569
553
547
530
515
547
559
545
553
554
544
547
563
577
568
568
572
560
556
556
546
552
568
575
574
573
576
560
532
516
533
537
537
538
527
535
546
548
537
528
533
520
484
479
521
576
641
703
776
851
919
977
995
967
912
821
718
622
545
474
406
338
292
295
293
314
362
387
387
402
440
495
520
508
493
480
471
486
505
506
503
492
483
489
509
499
480
487
527
550
532
508
496
490
487
506
524
539
551
550
539
523
516
549
545
533
515
512
528
548
560
575
599
599
579
558
545
541
539
543
537
558
580
587
577
556
561
585
591
594
576
570
602
633
636
640
634
628
618
599
596
615
633
629
620
628
624
622
630
632
640
652
652
646
634
632
635
642
652
650
653
638
618
605
590
589
602
608
603
559
535
558
574
583
575
549
525
506
502
497
503
508
475
453
456
460
455
443
436
417
391
389
403
425
420
397
396
410
427
437
437
428
420
405
414
407
392
397
423
430
424
409
414
420
420
425
415
418
420
425
446
475
485
484
480
472
481
492
486
474
480
476
477
493
501
497
495
488
471
471
467
464
467
491
501
517
535
537
532
526
524
521
511
491
487
495
504
512
510
524
543
529
504
506
506
494
489
503
508
521
535
541
538
538
528
517
511
516
522
529
541
541
555
562
542
528
547
549
528
525
526
522
514
522
521
516
519
501
499
520
550
574
585
583
564
544
554
558
545
548
561
566
565
578
584
585
558
530
527
542
557
560
565
568
560
564
565
576
590
581
573
550
554
557
554
555
562
580
599
612
594
574
572
561
550
538
552
566
560
559
584
592
574
560
552
558
562
575
581
580
584
594
603
595
585
593
587
600
596
586
588
598
592
586
571
551
569
582
580
567
561
578
600
613
613
597
575
581
598
607
594
566
570
586
613
615
623
633
615
589
587
597
587
582
583
581
568
572
578
573
572
577
600
618
597
590
598
611
603
588
592
603
623
634
633
615
602
590
598
607
605
599
581
557
565
594
620
636
653
649
628
600
588
572
560
576
591
610
617
603
568
535
544
570
580
583
566
554
551
563
579
583
584
588
593
613
639
674
734
792
862
937
999
1004
966
902
809
704
613
537
476
406
365
359
373
380
391
422
455
479
490
495
495
509
545
574
561
515
489
491
506
511
516
532
527
527
521
528
551
554
533
520
533
554
555
543
534
519
537
585
607
588
561
557
566
568
590
600
574
551
564
565
559
559
569
565
561
569
578
576
581
579
560
565
568
570
578
593
602
603
616
621
623
610
585
582
584
599
609
622
632
623
617
626
631
630
645
655
648
629
614
615
653
675
668
668
679
676
660
626
610
615
619
624
638
631
610
592
616
628
610
610
614
609
597
580
568
562
528
500
490
486
488
495
487
464
430
423
423
428
435
440
433
429
448
451
451
444
440
439
436
435
434
435
430
423
420
423
419
418
436
448
454
463
476
484
478
464
465
483
492
482
475
489
496
496
494
485
493
494
466
459
454
458
464
486
507
497
486
506
513
507
496
478
491
508
511
519
527
532
534
522
517
523
509
484
479
494
492
490
518
540
524
501
505
532
529
530
529
523
538
538
512
498
500
507
512
523
528
524
500
499
513
528
526
526
514
510
519
530
525
529
549
549
540
530
544
555
573
586
575
543
503
503
513
508
512
522
517
507
516
520
526
557
571
565
549
545
539
538
556
573
566
557
560
552
552
556
558
548
546
545
532
531
518
523
533
536
539
537
531
538
552
561
538
503
485
501
530
540
544
544
542
536
542
537
540
565
559
546
542
541
561
584
587
578
569
556
558
574
591
573
535
524
540
533
529
542
532
525
527
516
521
536
537
546
552
560
564
552
558
571
567
552
523
524
541
555
542
531
544
558
545
543
531
530
520
513
528
542
536
539
547
529
516
528
537
556
576
560
549
533
529
528
536
534
525
532
559
572
563
553
548
547
547
543
535
522
522
542
555
569
575
570
556
548
544
533
549
572
591
594
589
575
546
533
537
535
532
533
509
509
538
546
535
530
531
527
512
507
519
528
517
517
527
520
518
526
547
591
655
737
804
864
909
950
974
954
895
812
699
593
496
405
340
317
336
354
364
386
402
406
414
434
451
463
460
457
472
495
494
474
446
440
451
467
476
499
520
512
486
471
484
501
506
507
508
501
494
488
479
481
478
480
512
509
504
517
540
552
555
558
557
543
542
538
537
550
567
569
550
534
532
515
509
528
544
536
518
518
533
541
551
568
590
610
597
561
531
542
569
595
618
626
603
598
610
608
592
578
576
586
598
609
616
618
616
611
601
596
612
627
613
611
612
613
614
605
582
558
545
560
573
554
546
545
538
531
518
509
512
505
498
492
461
414
399
407
420
410
399
398
387
375
370
363
356
368
393
413
419
402
366
352
349
349
364
371
365
353
365
411
439
451
431
394
382
377
379
379
392
418
435
425
407
391
399
426
430
427
421
433
447
447
448
441
435
428
430
427
440
451
444
452
464
454
468
477
457
448
442
449
455
461
462
485
493
490
468
408
397
435
452
448
454
456
430
427
437
452
460
471
479
470
476
488
489
491
475
440
433
436
439
439
443
451
463
482
487
490
497
500
476
457
467
485
472
463
472
488
497
480
482
498
494
492
490
491
483
492
519
518
497
501
499
481
469
473
478
505
536
543
524
498
468
468
488
487
487
494
502
524
535
538
526
501
512
523
533
541
527
514
513
521
544
556
551
548
545
536
532
526
538
527
500
494
516
531
528
537
550
542
530
536
548
574
586
570
546
539
539
531
536
529
519
523
533
552
573
580
576
548
507
497
507
516
536
549
557
555
550
556
558
545
536
547
557
568
574
567
566
565
559
571
578
576
553
526
525
546
556
564
575
580
559
555
569
558
547
538
535
546
550
550
564
572
570
563
570
553
555
564
573
545
529
544
549
542
536
540
543
557
573
591
594
580
577
565
551
550
555
556
563
572
565
567
585
592
576
545
531
552
579
573
558
557
542
529
526
523
517
516
526
540
544
540
529
519
519
523
529
528
539
520
500
524
569
602
655
715
803
924
1007
1023
1013
934
837
745
638
547
466
396
349
326
318
331
359
386
413
436
441
448
468
486
494
488
474
473
494
515
517
492
491
518
550
582
584
551
514
489
481
493
523
541
556
543
515
509
522
557
570
552
535
523
530
541
533
547
569
574
569
550
547
570
576
592
601
600
587
572
559
545
539
553
556
542
551
581
612
618
607
599
583
587
598
589
601
618
618
607
611
619
609
601
613
630
659
675
659
632
616
606
614
615
605
609
634
654
648
629
622
615
615
634
649
655
649
644
642
606
576
565
554
557
557
554
548
524
517
513
488
472
484
501
486
455
449
453
452
444
433
423
420
424
422
409
409
383
386
403
417
405
386
394
414
434
442
429
436
444
436
414
403
417
450
465
452
420
418
430
440
451
459
467
465
444
446
448
456
493
515
493
479
490
500
521
509
488
481
481
484
494
503
495
480
479
499
504
498
497
497
499
508
503
489
491
517
527
535
528
514
528
535
528
529
523
524
532
525
506
489
475
474
491
500
503
507
529
541
538
549
566
559
551
535
519
513
519
543
560
577
579
574
564
538
513
512
500
478
487
521
535
555
562
569
563
550
550
549
546
557
562
551
545
559
559
553
572
586
557
533
538
548
557
558
555
566
594
624
637
626
618
603
588
583
597
619
620
628
638
636
617
613
599
603
614
592
547
537
560
586
599
609
605
598
599
596
591
582
567
564
577
603
612
599
587
559
568
560
548
539
541
574
602
602
594
576
553
535
523
542
552
560
573
572
568
567
559
543
539
551
548
537
540
537
534
534
533
542
548
549
556
548
535
531
539
540
538
530
525
497
473
487
520
540
543
545
569
571
564
561
555
535
528
524
527
539
544
550
567
543
533
527
535
539
538
530
536
557
560
553
544
522
518
524
517
497
496
523
529
540
545
543
524
516
519
527
539
542
532
503
495
504
502
495
484
478
486
516
526
502
492
505
512
527
552
617
701
792
872
941
966
949
890
804
698
590
510
426
343
292
286
299
323
334
351
359
369
394
424
432
433
455
475
484
475
467
458
464
485
493
471
449
439
452
456
471
486
472
465
473
495
493
486
484
490
488
488
484
493
497
508
502
503
518
514
510
502
489
501
502
489
482
502
519
522
525
515
516
526
532
522
520
516
511
517
529
545
560
559
565
567
548
540
542
557
554
548
551
549
554
567
583
584
584
594
598
587
577
580
580
595
602
595
575
563
574
602
613
625
618
582
552
533
534
539
537
539
538
526
522
524
523
515
513
500
471
451
451
447
444
451
455
448
427
397
374
377
381
377
367
362
353
368
385
396
393
399
391
370
373
385
381
372
382
393
396
386
366
372
388
390
394
405
406
409
427
429
428
426
421
420
429
434
436
434
447
458
473
482
470
457
462
464
445
438
440
442
454
475
480
463
444
437
430
432
453
478
472
471
470
481
478
476
486
504
506
494
492
497
487
477
462
441
453
469
470
464
465
453
435
443
460
464
468
463
460
471
481
494
497
487
480
479
479
488
497
482
474
476
489
509
510
522
533
524
488
462
471
488
494
482
464
466
488
512
521
528
526
525
522
519
513
512
502
500
506
516
515
512
519
502
493
497
503
507
506
505
508
504
504
505
517
521
521
526
538
536
522
527
526
522
526
524
529
538
544
542
536
525
514
527
523
507
512
506
498
496
507
523
542
537
528
529
518
529
524
519
520
505
494
486
507
528
539
540
540
535
520
503
504
504
506
501
506
509
513
506
506
514
513
500
493
493
495
482
484
494
485
482
503
522
529
525
519
518
515
522
520
528
525
519
513
524
528
517
514
518
512
496
485
489
498
507
521
527
529
533
518
506
512
527
552
557
551
538
515
509
499
490
500
519
513
520
527
524
536
554
538
517
521
516
504
512
517
508
497
502
508
516
535
538
533
534
527
507
500
485
465
471
489
496
516
562
631
701
781
867
938
988
1000
936
847
789
714
612
502
409
346
316
310
326
361
384
396
403
405
424
446
462
464
454
464
484
480
470
464
469
479
492
503
488
478
473
470
469
484
483
478
495
505
482
454
464
488
483
457
467
504
518
520
515
504
512
523
534
538
517
508
502
496
502
513
514
512
508
520
534
534
533
521
521
550
555
550
543
528
536
561
577
586
593
604
603
591
571
561
562
563
563
560
571
606
633
632
634
620
602
609
614
616
609
612
614
613
612
608
602
605
610
604
611
611
621
616
595
584
576
558
550
553
532
505
491
486
485
490
494
493
475
470
451
422
410
400
409
418
432
444
429
420
415
403
388
368
357
378
416
428
420
417
410
411
421
412
393
414
436
435
425
423
425
436
441
442
450
467
467
463
465
459
453
473
482
479
484
487
472
481
493
493
489
474
466
477
469
462
473
497
509
504
497
495
502
497
485
467
459
475
493
512
525
527
521
505
506
523
541
555
540
509
484
459
457
473
492
492
502
500
516
514
497
488
485
490
495
500
514
508
524
533
520
527
538
529
510
500
503
522
526
524
541
546
512
481
485
516
526
526
511
489
491
509
522
521
528
524
514
497
495
508
528
528
519
510
518
527
531
528
510
520
545
545
538
555
550
539
533
508
495
513
534
552
549
531
517
514
516
519
526
526
518
533
540
539
537
540
534
519
518
522
530
527
525
547
551
529
525
544
551
537
537
539
544
548
529
508
484
489
517
527
517
521
526
529
526
529
550
554
514
505
524
538
536
550
554
547
542
520
517
519
531
523
527
522
518
531
533
534
525
531
547
540
515
505
508
505
513
536
561
565
556
555
539
516
516
507
508
533
549
563
564
547
530
521
508
519
535
551
570
562
541
536
531
526
524
527
534
540
538
556
563
552
545
525
513
520
531
535
539
553
554
556
544
532
525
526
522
527
532
544
549
539
531
518
521
525
513
499
505
502
506
507
505
507
533
556
573
613
672
736
808
880
939
958
956
914
832
768
689
584
478
388
335
315
316
351
383
395
410
427
445
449
454
469
479
484
490
499
512
530
539
518
487
490
494
489
479
488
508
524
546
563
562
564
557
527
503
504
520
530
537
531
544
544
524
477
487
538
582
597
598
579
554
537
531
543
544
548
563
556
548
551
570
583
580
592
589
565
545
551
567
585
601
614
630
628
605
571
566
580
592
569
568
599
615
615
632
627
617
615
608
602
611
633
637
641
634
628
612
606
602
610
614
592
570
561
575
591
593
587
591
592
590
561
535
528
532
522
505
505
504
500
493
472
445
420
403
412
430
443
435
411
416
418
403
384
382
385
401
419
415
416
407
401
413
426
426
428
408
385
382
405
403
384
393
429
453
445
432
422
428
449
450
460
462
455
445
453
487
517
503
482
486
507
513
509
507
498
493
477
475
482
491
483
458
461
494
514
514
501
501
519
541
549
544
536
505
509
505
488
486
478
483
499
505
518
533
536
525
502
508
511
516
505
494
481
490
499
509
503
502
505
508
513
521
521
525
526
529
531
520
512
509
492
498
508
498
499
528
555
550
536
520
512
495
475
473
500
519
517
509
506
517
521
515
505
505
524
523
517
509
508
514
543
538
508
497
492
485
515
533
536
539
527
535
543
537
550
539
516
518
523
521
513
517
529
521
514
520
528
528
513
514
515
521
538
524
515
524
521
520
518
527
526
535
523
509
493
497
524
527
523
524
523
521
523
523
532
538
561
568
565
529
495
503
522
519
517
526
535
546
542
519
520
529
538
530
520
518
523
529
529
529
529
530
530
527
528
513
513
517
520
543
534
512
500
520
541
538
523
522
530
516
518
550
566
559
537
539
553
564
563
548
527
536
548
547
535
532
559
570
563
553
528
518
513
518
521
513
506
514
535
545
555
560
551
532
535
530
519
519
517
502
505
502
504
510
507
500
490
485
519
541
524
513
527
566
605
643
713
812
915
983
996
948
858
775
697
615
541
446
353
305
298
322
359
354
359
388
417
429
441
450
468
484
476
461
440
444
466
479
473
470
477
477
491
507
511
499
481
483
494
498
485
463
454
452
478
510
518
507
508
518
522
535
526
523
526
509
502
497
502
509
514
516
521
532
559
555
516
491
506
510
519
519
537
546
554
564
566
571
574
569
575
580
573
568
568
575
584
585
588
593
592
590
589
599
611
619
613
608
601
590
578
583
595
610
612
612
609
610
597
596
592
571
566
577
576
564
540
527
533
558
562
544
524
522
525
508
478
455
440
427
424
415
389
390
417
438
425
394
385
385
378
367
403
435
435
423
378
330
322
338
370
379
349
350
370
382
385
385
374
362
393
440
457
432
403
390
362
345
364
369
377
396
422
436
450
447
414
378
384
408
387
385
444
478
441
393
397
416
392
377
372
367
365
370
357
357
380
403
400
368
341
321
307
282
254
238
269
302
318
306
285
278
303
318
326
329
343
375
382
382
368
372
379
369
346
380
412
399
416
446
464
425
423
446
455
461
443
426
432
450
479
492
477
443
395
387
416
429
422
444
481
524
509
479
458
467
492
522
536
544
573
598
582
540
508
506
501
486
483
473
449
430
435
441
448
465
441
398
375
370
394
410
413
415
414
402
391
386
387
388
396
399
382
365
343
321
320
305
282
281
293
305
317
344
369
391
408
403
441
502
556
614
655
673
681
717
749
785
813
832
858
877
914
944
964
968
947
916
941
1019
1023
1023
1023
1023
1023
1023
1023
1023
1023
1023
1023
1023
1023
1023
1023
1023
1023
1001
983
968
957
952
960
976
965
935
909
908
898
856
831
810
760
708
660
634
619
608
594
584
564
528
486
430
408
410
401
390
385
372
369
359
329
316
331
326
308
300
283
278
265
257
256
275
289
296
275
277
287
294
310
295
299
311
318
322
335
342
323
299
266
252
261
269
265
256
258
238
211
193
171
135
136
173
206
206
190
183
169
172
203
256
323
372
424
502
599
617
569
513
424
289
184
99
54
30
17
10
6
4
3
2
2
1
1
1
1
1
1
1
1
1
1
1
1
1
1
1
1
1
1
1
1
1
1
1
1
1
1
1
1
1
1
1
1
1
1
1
1
1
8
7
25
17
24
15
27
60
84
108
129
125
135
186
235
281
317
342
367
386
395
413
454
497
484
480
494
498
526
548
566
577
577
585
591
589
597
616
641
656
684
705
717
737
763
775
760
777
812
820
817
821
830
837
851
864
856
863
863
857
869
881
877
851
820
808
792
805
834
824
797
752
736
740
728
720
721
710
679
672
668
677
680
692
706
701
700
713
723
738
758
764
755
763
779
766
753
756
776
785
765
771
805
813
815
823
823
838
859
874
869
870
879
858
847
857
884
887
895
896
896
885
870
864
863
854
857
875
889
890
885
873
881
878
880
879
878
874
866
862
855
848
847
833
816
806
807
814
810
805
810
821
830
832
835
833
825
806
796
785
789
783
784
802
813
818
830
837
822
767
750
765
784
791
778
764
752
744
733
725
721
704
698
708
724
750
757
752
747
735
721
719
728
738
734
712
692
689
688
696
699
690
694
687
666
657
646
650
654
656
664
680
679
670
659
666
666
655
647
633
625
627
619
617
623
629
637
627
637
652
664
676
651
627
607
594
594
603
615
617
623
638
640
638
655
659
649
630
596
589
592
604
614
625
620
615
618
617
595
571
578
614
637
644
634
631
622
614
608
610
614
594
574
587
583
588
588
593
586
577
565
560
563
558
560
566
575
584
595
615
616
600
590
573
577
583
591
600
584
574
578
598
615
612
598
582
580
571
552
554
565
569
575
586
591
589
594
576
571
578
585
577
589
595
587
577
581
579
573
578
592
619
621
609
603
586
564
576
596
602
583
577
588
592
598
601
577
559
571
572
555
538
543
547
538
552
553
558
564
559
565
605
664
736
809
870
931
976
1006
991
929
850
753
647
558
476
418
380
354
348
359
368
387
401
424
436
464
492
516
536
549
547
535
547
550
551
556
553
550
535
523
530
533
535
556
571
553
544
539
542
547
541
552
578
592
575
569
557
542
526
536
551
567
580
583
594
589
583
575
557
544
533
538
558
574
571
559
561
555
566
577
560
548
544
560
575
589
595
586
585
592
587
571
573
594
612
607
593
599
605
608
607
608
612
621
618
615
610
599
590
609
635
625
612
615
611
596
585
587
586
590
589
581
570
560
559
558
548
527
510
491
471
464
469
472
462
453
443
412
396
398
412
420
403
390
376
370
369
362
359
370
375
373
376
379
364
354
360
369
384
382
381
373
375
380
380
401
409
394
395
388
377
382
384
390
391
403
407
408
435
447
437
440
439
439
438
445
468
475
466
468
477
469
432
421
421
422
425
434
451
469
470
471
462
456
450
454
453
459
470
478
481
492
472
466
485
508
517
503
483
460
440
436
450
464
462
447
444
459
486
490
466
457
462
461
460
472
474
475
504
533
532
505
481
474
465
466
479
485
484
475
495
510
501
498
494
484
466
461
460
479
483
478
465
464
496
520
522
509
484
464
460
461
464
468
465
464
464
468
470
477
469
470
473
474
461
449
438
436
444
470
496
514
494
483
475
473
469
455
459
456
453
454
461
466
462
468
474
456
457
451
450
455
463
467
453
443
433
451
464
465
480
484
484
480
482
476
465
464
472
458
464
456
451
445
460
457
469
478
464
458
472
478
472
459
461
461
450
454
467
463
469
471
470
481
475
470
472
484
490
491
465
453
456
460
488
505
490
470
471
482
481
491
495
489
483
475
483
488
485
498
508
507
503
505
514
518
502
496
497
489
482
468
461
455
450
454
457
465
475
478
462
454
447
456
459
467
466
452
455
467
478
466
455
463
483
520
570
627
702
794
868
914
938
917
829
702
587
504
436
359
304
270
270
282
288
298
313
348
376
396
403
403
409
399
388
396
406
407
397
396
398
418
434
436
441
442
441
432
419
409
423
437
448
435
430
426
428
430
428
434
436
435
429
426
432
441
435
444
464
461
458
465
460
459
456
453
464
481
493
499
492
469
450
431
417
431
450
469
489
479
470
479
494
492
495
492
487
499
510
517
521
526
529
543
562
565
570
567
557
552
557
569
564
559
559
555
552
540
541
551
543
558
546
525
511
510
524
514
501
493
481
491
499
487
466
455
439
419
402
390
387
392
387
382
376
379
378
368
344
327
336
353
364
346
336
332
315
320
336
347
357
352
345
355
351
347
347
347
349
362
386
392
391
414
429
407
383
387
388
400
403
398
387
389
401
416
425
441
457
451
439
433
432
433
431
437
451
468
483
473
468
460
446
444
444
439
450
451
460
464
457
458
457
432
441
463
471
473
467
465
453
451
475
493
502
500
485
476
469
473
461
463
471
478
494
491
487
487
479
461
455
466
489
503
501
501
489
473
479
490
490
493
486
481
481
482
486
491
516
538
531
505
480
464
476
494
498
486
486
500
507
496
501
496
493
490
493
500
495
497
503
506
522
542
537
507
494
493
494
488
492
498
490
486
494
516
528
523
505
509
518
525
514
502
500
502
499
502
515
512
505
499
501
491
485
493
506
513
506
509
510
540
552
542
528
509
496
495
494
495
496
503
515
521
534
545
554
556
536
518
512
509
521
526
530
531
541
553
553
555
568
552
534
526
542
556
552
534
516
531
536
534
536
531
527
529
510
502
516
534
537
533
540
550
556
547
531
534
555
564
570
572
550
540
551
555
550
559
566
547
537
521
525
542
551
567
572
550
531
540
548
544
547
556
559
572
573
555
557
573
566
566
567
559
536
512
507
506
520
524
530
519
521
536
527
515
521
519
515
524
536
536
534
551
598
649
709
788
884
970
1023
1023
993
897
799
686
586
503
415
327
279
295
336
365
394
405
390
407
446
470
468
472
476
489
500
496
488
471
466
474
479
477
470
453
443
458
492
498
506
509
500
512
522
514
521
521
506
500
505
498
517
548
550
544
530
512
514
527
534
537
537
550
566
576
578
575
557
531
533
542
553
550
546
572
573
574
568
566
565
566
584
593
597
591
586
584
591
595
595
605
608
613
636
657
641
621
610
594
596
594
582
605
631
640
637
628
627
606
600
610
619
619
606
583
571
569
572
576
565
561
559
566
551
523
503
489
491
494
476
475
460
443
424
418
418
426
417
391
376
381
390
394
400
400
398
387
384
392
382
367
368
375
376
366
375
403
426
435
437
437
414
393
384
383
386
397
414
437
445
440
441
445
421
400
424
448
453
459
467
469
470
474
496
499
487
476
471
468
459
457
462
460
465
485
487
470
461
475
477
471
463
481
495
493
493
488
477
476
485
496
520
540
536
519
513
510
502
497
494
481
478
485
502
504
509
510
509
501
498
493
478
470
482
508
524
522
519
496
488
491
496
503
510
516
524
535
532
516
506
493
503
524
531
532
519
510
507
493
489
500
513
518
519
509
507
511
505
503
518
518
511
514
527
530
523
506
499
497
514
538
539
532
530
540
543
530
531
539
535
538
529
508
507
505
513
523
526
526
524
536
549
540
520
517
512
498
494
510
529
536
546
548
550
553
551
545
546
549
542
536
539
529
525
525
536
548
554
559
542
527
510
513
519
517
508
496
499
519
548
563
567
563
557
553
543
543
545
547
542
537
540
539
548
543
526
531
532
530
526
526
530
520
511
508
511
519
533
544
541
553
562
573
583
588
556
540
540
542
544
563
569
571
570
549
520
508
528
544
553
556
552
548
544
543
540
549
562
556
555
554
552
555
557
564
560
555
540
516
506
505
520
536
519
512
523
518
517
529
552
551
557
579
609
652
708
773
846
914
964
991
986
923
824
719
625
532
444
374
332
312
311
329
351
372
392
424
444
460
481
507
510
520
522
511
495
488
481
484
494
508
509
507
521
530
524
514
512
525
529
536
535
515
515
517
510
494
498
510
526
526
524
517
521
531
540
551
547
542
545
548
548
535
530
527
533
541
539
544
538
553
563
556
551
539
549
554
561
564
563
575
577
591
596
584
572
575
585
600
611
619
619
618
619
621
607
592
581
574
577
593
615
628
627
619
604
592
591
604
611
601
595
581
562
562
559
560
576
586
572
550
532
512
506
501
491
468
444
425
410
421
442
446
436
419
419
426
429
423
420
410
391
384
380
370
367
367
360
356
369
375
397
404
397
404
404
379
376
395
398
403
407
415
416
427
436
448
440
421
431
447
425
403
398
404
416
431
441
439
442
456
470
460
438
426
416
424
440
455
465
476
491
499
505
506
511
505
495
490
485
471
460
454
456
474
484
504
518
505
516
528
513
493
489
495
505
515
516
508
501
506
502
495
506
511
501
506
509
503
510
514
507
506
495
489
487
492
510
510
503
511
514
518
520
521
512
527
531
526
540
540
515
508
500
500
507
519
525
516
487
487
501
526
537
513
498
509
509
519
539
545
536
526
515
522
545
552
548
523
496
497
501
502
500
511
518
514
513
516
510
510
536
527
506
514
538
549
543
541
546
548
545
545
558
566
569
557
543
520
504
493
497
518
533
530
539
545
542
540
516
508
519
536
545
548
541
540
559
560
537
524
525
532
544
551
551
553
540
515
507
518
531
537
536
534
538
544
542
522
532
562
579
573
547
527
518
520
535
548
558
568
571
554
544
537
533
540
561
566
579
579
556
533
528
540
563
571
546
527
522
541
566
570
555
543
543
551
548
550
525
507
500
483
479
492
508
535
554
549
532
502
496
514
524
543
586
627
682
749
830
919
969
978
942
866
774
685
595
488
404
350
317
298
304
317
349
382
393
394
406
420
435
458
482
486
472
459
460
459
451
455
468
482
469
457
472
487
490
513
527
515
509
525
520
477
466
488
500
501
494
498
499
492
481
492
486
492
515
540
547
534
520
498
475
503
562
589
588
576
567
546
532
518
514
509
505
510
532
549
556
560
569
568
564
560
583
590
587
580
564
549
541
562
602
615
606
599
600
600
586
583
599
608
606
610
607
598
584
583
578
572
578
598
585
568
561
548
523
536
551
545
541
538
532
520
488
464
458
468
467
438
415
409
419
423
432
435
408
377
362
350
356
371
375
374
372
374
381
383
387
400
389
368
360
365
382
390
378
373
366
376
397
413
427
396
385
399
409
418
416
410
405
400
412
444
472
473
468
444
430
429
443
444
455
459
443
449
449
444
459
471
449
420
408
436
466
481
487
479
475
471
457
456
462
444
433
440
449
468
472
469
454
473
495
493
499
477
461
462
478
495
493
476
467
449
440
462
483
497
494
493
489
484
485
477
475
496
521
514
507
512
507
503
497
501
500
475
466
465
481
503
508
505
483
473
477
472
464
482
506
514
529
539
521
500
508
532
545
542
521
524
525
519
498
482
482
498
501
510
521
522
519
494
477
487
483
489
504
516
520
516
505
492
496
506
504
513
534
542
528
503
496
480
481
498
515
514
513
510
516
530
532
520
502
486
470
466
481
488
490
495
505
518
515
520
521
514
497
467
451
484
525
542
550
553
553
542
533
529
524
501
493
503
520
510
487
494
501
499
502
506
504
492
484
499
507
520
501
464
490
529
536
534
531
524
530
542
535
520
521
544
552
529
516
514
525
546
545
537
535
542
524
517
520
527
531
524
528
521
505
500
508
534
527
519
513
518
531
529
525
530
526
519
519
524
517
489
463
455
470
491
480
464
475
500
519
558
615
690
781
874
951
986
996
979
931
858
762
651
529
408
326
295
310
327
340
355
365
384
413
435
444
438
434
427
428
437
446
461
477
496
507
496
483
484
496
495
497
503
504
501
502
505
515
519
503
504
525
525
530
523
513
497
499
505
487
500
529
524
527
535
533
523
515
515
513
522
532
547
554
527
524
535
544
549
543
531
549
559
556
529
521
551
579
595
591
584
596
600
603
608
609
585
580
589
597
593
587
586
586
594
601
607
609
603
625
620
611
632
633
621
613
600
593
581
579
572
562
568
580
581
567
549
527
527
517
493
485
478
474
470
458
447
430
422
428
437
431
402
392
390
375
375
384
374
382
397
395
391
388
379
380
379
386
385
374
377
387
393
389
402
404
404
412
423
433
431
419
413
410
412
396
408
440
458
477
472
457
448
456
459
438
426
443
465
485
487
477
460
448
456
474
468
465
472
477
480
483
482
477
481
487
495
479
468
484
494
499
514
515
505
495
478
465
470
469
464
475
478
488
500
500
506
500
489
486
497
497
475
465
471
489
502
500
493
485
481
490
486
471
465
480
494
499
501
501
493
500
499
497
513
520
507
485
480
472
483
485
484
479
495
508
512
514
509
493
495
503
511
518
508
500
493
487
479
486
504
527
533
507
488
502
496
492
503
522
526
522
513
524
525
520
524
524
512
503
512
518
522
520
523
535
541
552
533
512
512
519
525
520
498
494
507
512
512
506
521
526
526
543
559
552
545
525
516
524
542
547
535
523
527
524
517
520
534
535
534
532
518
517
522
523
527
530
536
555
563
548
533
516
513
515
515
546
575
573
556
549
548
543
530
519
520
529
528
532
536
525
523
523
538
551
548
541
538
539
554
568
563
549
532
525
534
564
587
565
541
541
541
546
547
557
574
573
554
549
560
562
552
548
555
553
559
553
540
526
510
509
523
526
534
538
504
483
500
504
485
496
513
515
522
528
542
566
606
643
688
760
851
931
981
996
972
904
811
710
593
488
392
324
291
290
310
337
357
372
378
411
456
458
461
477
480
483
486
490
494
495
486
490
502
495
490
502
507
495
485
494
500
516
513
502
502
524
533
529
518
519
518
517
519
518
519
519
536
539
537
538
540
546
549
544
547
541
533
528
518
502
510
527
533
533
532
557
572
564
563
558
559
567
567
574
564
566
583
590
590
584
570
580
581
581
596
608
625
636
613
591
590
609
613
604
599
600
608
615
614
610
598
591
574
566
564
559
553
564
572
580
571
563
554
540
517
500
484
472
464
473
478
468
438
407
401
404
404
395
392
387
386
399
403
387
368
355
338
324
334
357
387
416
410
387
378
372
373
373
378
395
401
397
393
397
403
408
413
411
408
415
423
411
390
396
400
406
418
418
432
456
472
468
447
445
465
477
476
481
476
465
467
462
465
475
483
480
482
491
496
491
484
486
488
480
474
491
512
521
518
496
481
493
485
481
493
505
518
526
515
513
507
512
526
515
494
492
494
506
531
532
518
516
518
518
515
524
518
506
514
524
537
547
531
525
529
523
505
508
521
524
532
527
519
505
530
551
555
557
552
526
512
522
542
543
535
548
549
531
525
536
553
549
544
530
532
541
543
543
541
542
554
558
557
544
539
538
553
556
549
544
552
563
559
549
551
547
532
510
520
540
548
559
567
567
566
564
560
548
531
538
550
548
519
521
538
548
560
559
563
571
558
559
564
558
552
547
533
538
543
538
519
526
540
538
540
544
538
528
530
547
543
530
533
533
529
539
546
541
536
535
535
536
552
564
560
561
542
543
541
517
494
496
514
538
547
545
549
558
560
579
583
570
542
511
507
523
545
556
556
555
560
561
559
545
537
542
560
568
553
548
544
550
552
554
558
550
551
555
561
570
573
559
559
557
548
543
540
535
524
507
487
495
523
539
529
518
521
523
522
527
533
529
531
543
571
615
683
766
856
925
970
989
986
935
844
728
609
515
410
334
287
283
299
317
353
384
409
435
435
447
471
480
479
480
481
488
513
508
504
492
485
489
497
499
503
509
518
505
503
511
496
493
512
524
524
504
504
506
506
519
516
507
517
514
523
527
534
518
505
518
537
543
535
532
537
534
535
543
544
533
542
549
551
555
555
557
562
558
566
566
569
576
594
614
603
593
589
578
577
591
604
620
611
612
602
592
588
601
617
630
637
630
600
592
605
610
608
600
597
605
612
606
579
566
564
565
552
565
581
569
541
517
488
474
487
486
469
454
441
438
444
452
436
421
410
407
398
383
381
381
368
375
361
356
369
374
370
345
325
329
355
383
411
408
389
374
374
382
394
392
388
397
398
401
410
412
416
410
398
409
415
418
446
448
439
438
443
451
459
462
450
450
456
466
467
471
482
475
456
458
476
487
491
491
471
459
453
461
480
486
478
469
486
500
489
489
484
469
491
498
484
484
489
485
490
495
508
506
498
489
492
501
502
496
501
499
487
482
477
472
464
472
482
500
509
498
487
487
485
485
483
504
515
503
504
494
499
494
483
473
488
508
516
525
535
523
490
484
485
487
486
479
491
500
489
485
483
493
503
505
502
498
498
494
484
487
495
508
518
520
522
494
478
479
478
495
518
528
532
522
509
501
507
515
516
512
514
513
511
518
520
516
515
507
502
523
531
527
520
507
502
507
514
504
501
509
510
510
516
526
539
541
546
536
523
519
520
514
520
532
541
539
531
526
534
536
535
534
520
520
533
537
539
535
531
529
516
501
520
531
538
523
521
543
547
537
509
497
517
549
568
570
553
527
508
492
507
532
530
512
521
520
509
505
515
549
556
533
520
533
530
527
520
507
507
506
505
509
516
520
526
527
539
535
527
530
525
524
533
551
568
564
535
521
520
532
525
531
532
532
530
532
533
536
535
531
534
538
526
503
486
494
517
526
515
497
482
480
476
456
455
466
488
506
517
513
495
486
488
504
526
543
566
636
726
816
885
934
967
976
934
854
772
666
569
469
380
321
287
265
269
304
345
375
392
406
410
415
416
430
458
474
473
456
443
446
442
450
463
468
461
459
462
470
485
495
506
503
505
500
493
474
471
487
479
464
479
503
507
498
513
537
544
531
518
525
521
506
484
487
500
510
521
529
533
537
542
550
540
518
517
534
540
538
540
528
526
526
538
555
573
579
581
591
591
594
599
586
575
567
561
562
578
607
622
624
612
588
578
586
603
612
618
617
611
599
588
579
570
573
572
572
572
568
552
538
536
551
553
537
508
491
491
481
463
453
462
467
449
438
422
405
404
391
381
371
358
352
360
369
368
362
352
345
368
375
384
372
364
370
372
375
378
375
380
396
406
396
382
391
402
407
398
395
401
410
413
413
422
430
434
446
460
459
457
452
457
463
451
436
442
459
443
431
429
427
422
432
450
466
476
481
485
475
473
467
473
477
474
482
474
465
460
472
476
464
456
452
471
490
499
494
463
458
454
444
443
457
474
490
488
502
494
463
459
472
475
480
491
501
490
475
482
487
483
478
474
487
509
516
514
502
484
476
487
493
497
494
498
505
505
510
506
499
510
526
532
524
505
496
498
494
482
494
498
506
513
520
511
486
486
493
500
507
510
513
503
500
505
510
509
499
505
526
528
530
525
497
488
488
492
496
509
510
517
508
495
512
509
502
501
502
501
507
511
541
554
553
551
536
527
517
516
539
539
521
527
538
530
528
534
521
505
507
508
504
501
500
500
509
506
520
525
536
532
533
537
535
541
540
529
522
525
528
528
519
516
510
520
541
555
549
535
515
503
500
495
492
499
497
496
499
504
501
528
549
549
545
542
523
512
509
512
521
530
524
506
512
518
524
533
517
504
528
544
550
542
524
522
506
492
503
510
510
526
544
532
540
561
568
548
537
529
518
519
519
539
544
539
535
532
531
544
544
537
525
510
507
526
535
534
534
524
517
509
501
499
506
515
520
512
502
494
496
498
508
525
527
520
509
509
514
533
567
619
689
758
826
898
955
978
954
880
789
691
589
492
396
326
289
275
279
296
315
337
362
396
406
410
424
457
481
492
503
492
458
451
464
449
448
455
461
463
476
497
526
522
516
514
505
496
491
488
510
528
520
513
518
514
504
505
499
504
522
519
510
507
516
505
520
536
541
543
546
556
553
541
541
548
547
539
520
517
535
542
550
569
576
569
578
580
576
570
566
563
562
581
579
570
559
580
602
618
611
601
602
599
603
609
613
612
622
616
620
615
600
601
607
609
605
594
573
569
560
560
562
553
544
547
545
533
521
504
507
506
494
477
450
442
432
415
395
381
376
385
389
394
393
388
383
368
365
368
373
358
366
384
378
362
360
370
382
385
383
378
382
395
411
411
409
403
395
399
406
408
403
412
407
409
415
417
417
431
438
449
471
477
483
466
452
458
474
477
478
478
487
484
483
488
492
493
495
503
505
507
504
510
517
528
528
503
502
515
525
536
531
513
500
521
535
536
534
521
509
503
513
529
546
539
521
512
519
527
519
514
518
526
528
532
532
524
534
540
540
552
553
536
524
528
529
527
526
537
542
553
561
550
536
532
499
478
491
507
528
551
553
552
546
532
537
531
527
531
535
526
518
519
516
517
532
547
558
557
552
561
544
517
501
498
518
533
534
524
527
546
552
540
534
537
543
530
512
520
525
523
531
537
534
523
535
548
549
549
557
539
536
538
544
550
553
554
548
530
521
534
540
540
539
539
543
545
533
527
526
519
521
523
522
523
535
554
569
568
571
559
545
540
535
529
527
532
530
537
545
535
536
547
544
525
514
520
536
559
556
534
529
548
551
541
534
544
547
549
538
529
525
519
534
551
562
576
578
561
539
545
558
552
554
546
537
534
543
553
558
563
555
561
559
557
547
555
574
575
568
554
558
564
554
545
547
547
545
550
560
554
543
547
560
548
553
556
554
557
548
517
506
510
522
522
514
504
502
517
531
522
501
494
488
497
504
515
532
575
628
681
757
848
923
962
972
931
844
766
666
560
471
393
343
307
295
307
324
356
393
418
435
457
461
459
471
483
489
487
493
496
479
472
465
454
465
477
488
492
492
495
496
502
510
519
519
509
489
499
528
543
539
531
516
508
512
525
524
525
521
527
530
529
532
530
526
529
545
545
530
525
537
544
559
547
551
558
536
538
543
547
562
573
572
563
573
582
589
574
557
556
568
587
601
595
593
606
602
590
580
590
590
584
580
586
600
623
638
632
613
592
586
582
575
588
594
605
610
599
583
571
551
533
538
546
549
539
522
494
466
453
442
439
434
430
425
410
416
406
392
380
384
377
377
372
367
368
363
355
362
368
380
392
379
374
372
374
375
386
386
389
385
382
390
380
364
369
383
397
406
413
413
412
411
414
420
423
424
436
450
436
437
448
442
443
449
450
450
441
429
442
457
457
461
466
468
476
473
455
442
440
442
455
467
476
487
493
490
482
480
479
485
479
475
468
469
480
479
450
442
463
485
495
488
491
496
504
504
510
513
501
477
472
471
460
468
490
505
489
478
477
481
490
490
503
514
512
493
496
498
493
483
484
479
494
507
507
512
518
531
534
524
522
515
504
508
515
509
510
512
512
509
511
520
523
504
500
509
513
519
511
491
495
521
523
514
505
510
512
519
519
503
501
499
495
510
522
499
490
498
500
500
493
491
497
515
524
516
507
503
501
488
483
478
481
508
529
542
545
554
558
541
524
510
497
500
503
489
497
514
520
508
497
496
478
477
503
532
528
503
492
487
485
493
503
507
513
527
515
496
502
513
518
519
516
525
523
521
516
507
513
505
501
517
521
504
486
487
485
474
496
518
521
517
521
525
510
500
513
512
505
505
509
517
530
535
529
508
507
516
506
491
499
526
550
565
555
529
519
523
520
521
506
497
519
539
552
560
548
533
531
523
513
517
524
516
529
534
531
540
546
540
550
547
539
538
538
527
527
522
509
490
482
483
494
500
499
498
491
493
500
514
512
493
490
521
558
596
669
758
853
924
975
1002
989
936
859
776
678
573
463
372
311
298
306
323
342
365
375
385
407
436
467
475
472
470
472
462
454
453
466
473
478
480
487
479
472
479
478
482
474
479
489
497
506
507
504
499
496
494
495
498
500
507
495
496
516
543
545
525
500
498
519
525
515
507
509
520
533
543
538
541
547
555
551
541
541
547
561
570
568
548
534
547
564
565
563
563
572
601
604
585
573
569
576
592
621
634
639
644
660
657
656
647
626
608
605
592
592
594
586
583
590
605
605
607
602
589
576
567
553
549
552
552
547
531
519
513
510
499
474
443
430
434
441
441
424
409
400
403
411
409
389
369
378
398
399
386
371
359
363
376
371
380
404
398
385
387
395
407
424
427
428
405
378
385
405
414
414
403
397
396
410
428
434
428
426
430
436
440
446
452
452
448
456
472
463
465
473
480
484
495
487
484
470
452
452
465
461
455
453
462
471
483
479
470
475
489
483
475
486
482
481
486
490
497
504
505
506
499
495
484
487
495
507
521
522
511
497
471
469
469
464
488
508
507
509
519
511
496
492
486
481
497
510
508
506
500
514
515
506
495
506
521
523
520
499
493
498
499
492
482
490
501
496
495
503
512
518
521
512
515
509
520
526
520
519
527
529
509
507
521
530
535
525
503
494
500
508
513
531
524
493
485
495
506
507
518
537
545
532
514
499
503
514
528
531
524
525
534
537
542
537
533
541
545
551
548
532
515
505
501
510
519
517
507
515
524
533
542
536
529
531
523
527
536
535
531
530
526
509
502
514
525
517
516
527
535
530
524
515
517
529
533
536
541
539
531
507
491
500
503
508
523
530
533
519
507
509
525
537
530
532
525
511
500
512
529
529
525
524
534
527
514
515
526
531
532
524
530
552
564
564
554
527
512
512
526
533
517
503
501
500
505
515
528
542
558
570
563
542
542
551
559
547
543
542
545
545
547
535
503
475
475
494
513
505
503
509
514
521
514
506
497
500
513
524
536
580
648
728
812
902
968
1001
1000
937
836
713
605
517
434
364
304
278
290
315
337
358
380
397
416
443
467
479
492
486
485
471
456
461
472
478
486
498
490
470
459
469
480
481
474
475
485
480
478
481
490
494
494
495
497
509
498
495
500
491
498
519
529
538
544
543
532
534
542
543
530
524
533
517
511
525
546
545
542
543
538
533
548
556
557
547
558
568
569
546
528
544
575
601
607
597
579
570
586
604
617
613
609
619
633
635
627
601
578
576
579
595
608
615
612
606
610
617
619
603
567
554
563
556
555
554
538
529
512
492
483
488
491
491
496
507
502
459
418
405
412
417
403
397
394
397
397
387
351
343
353
375
385
387
382
373
374
373
365
379
392
401
411
406
391
384
392
391
379
379
394
396
401
417
430
429
423
405
391
401
417
418
416
413
406
406
433
457
469
472
461
444
437
432
426
413
422
440
453
460
469
474
469
477
480
480
484
489
482
476
483
475
471
481
495
487
468
457
459
465
471
484
479
481
473
468
470
478
479
493
507
508
509
517
533
529
514
509
507
497
494
503
500
494
490
485
473
478
485
490
497
507
509
524
528
510
495
502
517
522
534
536
527
519
503
496
504
516
534
523
519
509
501
495
490
500
504
506
515
514
511
517
511
516
527
516
507
505
512
513
526
527
532
530
517
515
505
492
499
508
521
531
525
523
516
513
525
524
526
521
522
520
518
518
523
527
517
519
532
541
527
526
534
541
552
556
539
533
533
546
551
557
567
543
526
514
517
525
522
519
537
543
531
526
523
526
540
546
544
540
536
539
537
524
531
550
562
560
551
541
539
543
543
539
536
536
523
517
529
529
546
557
557
552
542
534
531
529
545
564
554
549
534
518
530
553
572
583
574
560
560
551
547
548
560
555
554
563
566
548
528
530
540
553
572
568
548
544
553
566
565
543
531
533
558
562
546
535
533
515
506
512
518
528
538
542
543
544
548
558
576
608
681
760
835
919
987
1023
1017
961
876
768
674
584
483
396
348
329
329
351
372
396
422
440
465
487
501
500
500
505
516
508
506
501
497
495
498
513
516
500
492
499
507
500
502
516
523
523
521
517
517
526
523
524
538
536
535
556
550
545
554
551
549
542
549
551
559
561
555
547
536
530
533
532
533
533
529
534
543
544
551
562
564
568
572
569
571
584
589
588
577
574
603
621
617
614
604
605
601
605
616
617
624
641
648
644
644
634
633
631
616
605
601
597
612
618
613
599
598
607
599
589
583
567
548
550
543
523
511
515
528
528
504
487
457
428
428
429
425
403
393
402
417
411
401
399
401
406
404
389
380
381
377
368
372
375
378
376
381
400
418
409
384
384
385
380
380
378
378
388
392
399
411
425
434
434
424
421
415
427
446
445
436
428
418
421
427
432
449
459
460
460
451
447
448
441
445
451
473
485
480
466
463
465
458
453
449
469
481
482
487
475
462
463
473
469
455
459
472
489
503
510
517
504
478
459
450
472
491
503
497
485
473
473
472
460
465
475
484
489
486
482
478
473
474
466
469
473
481
501
505
503
497
493
482
480
500
502
488
476
486
504
503
506
514
518
503
492
481
471
474
483
493
500
497
494
484
479
492
497
494
495
490
474
469
475
480
486
496
498
497
492
491
496
489
512
538
532
504
479
489
496
483
468
466
484
501
505
499
501
499
493
490
491
500
515
528
523
505
479
472
487
503
516
531
540
523
504
505
505
494
494
495
493
496
509
512
514
526
517
497
486
489
501
510
509
503
497
502
519
528
547
543
528
522
503
493
495
496
496
505
521
529
517
508
508
506
509
513
532
537
520
515
502
504
515
517
518
526
537
541
538
535
542
544
542
547
549
547
555
557
539
517
503
507
518
528
540
554
561
558
567
558
548
545
529
528
534
526
533
519
500
499
517
531
535
525
512
500
501
496
489
496
504
497
501
500
493
514
516
505
500
522
577
651
737
828
905
951
972
956
915
864
790
678
557
446
353
306
288
297
319
351
379
401
420
430
442
442
447
457
470
464
458
465
473
471
456
453
458
470
468
470
487
492
489
497
496
486
474
472
479
495
495
474
474
483
484
484
488
503
527
547
538
530
530
524
511
506
503
516
533
540
542
533
526
528
523
520
513
522
528
531
532
547
565
566
574
573
556
551
548
570
588
595
596
592
574
575
589
597
613
632
633
636
636
618
601
592
601
614
607
601
597
594
594
594
585
601
622
626
623
614
589
571
562
555
538
533
535
532
525
528
512
501
498
488
474
458
449
432
408
397
399
400
408
416
417
418
408
396
382
377
369
375
387
399
405
397
388
389
392
387
380
374
375
388
394
399
404
425
446
430
426
437
428
414
410
411
440
449
421
409
429
454
469
468
458
454
443
443
458
475
486
494
487
457
443
451
461
462
460
465
474
480
479
479
490
492
472
464
466
471
482
486
490
475
464
448
445
458
473
476
475
475
485
488
492
481
481
487
492
487
492
491
490
491
499
511
514
500
470
459
473
486
485
489
506
512
511
498
503
512
508
509
500
496
499
495
488
485
498
499
493
489
492
494
493
491
506
511
508
504
505
504
504
499
494
504
515
518
510
498
493
497
512
507
501
520
531
519
504
493
492
506
512
511
524
530
505
486
491
507
518
521
516
521
529
539
536
524
512
508
509
516
519
529
531
528
517
506
508
509
500
501
515
515
526
546
557
546
534
526
517
518
527
537
535
539
542
546
534
535
547
546
529
514
523
532
528
519
514
525
545
549
531
510
512
526
534
531
547
557
570
556
521
508
498
508
509
520
533
543
537
546
538
523
517
509
532
553
543
537
527
531
544
548
541
531
529
535
549
559
556
549
535
533
536
538
543
553
555
546
547
537
531
532
521
518
526
541
557
568
558
551
557
545
527
512
515
526
526
523
522
520
515
508
510
505
496
497
499
510
515
513
525
541
558
605
676
757
839
908
964
985
965
904
822
716
601
506
424
355
304
288
292
306
337
370
393
408
411
420
439
463
473
475
464
460
464
476
489
490
496
504
517
527
519
508
503
498
492
495
508
520
528
529
506
499
521
515
509
510
508
507
506
516
528
531
526
507
501
521
531
533
544
540
534
532
535
542
542
534
532
546
554
550
544
550
555
568
569
546
547
541
531
540
558
570
575
576
586
591
605
599
593
594
580
575
594
618
633
637
629
616
600
601
600
594
595
614
606
586
576
568
567
575
571
575
572
561
549
529
516
511
520
517
499
494
492
496
494
483
472
474
456
435
416
401
384
378
377
373
385
391
388
382
384
390
387
391
400
405
407
403
397
391
385
386
395
415
416
398
391
399
397
400
406
410
422
440
416
391
403
422
418
414
411
410
412
421
438
448
432
420
427
437
433
428
438
449
464
467
470
449
433
449
464
466
466
466
469
476
484
485
480
488
496
493
484
480
480
485
475
484
483
482
492
498
506
513
515
505
490
482
477
477
482
485
498
517
532
531
513
497
487
492
484
490
515
527
527
515
500
504
502
500
514
519
523
518
516
507
504
498
508
512
519
517
509
521
524
525
519
522
520
530
524
509
504
501
493
508
526
522
503
493
507
519
525
524
512
510
509
515
521
525
516
517
524
535
525
508
492
511
533
542
555
558
561
562
553
537
526
512
504
504
518
529
519
528
551
564
551
534
520
519
515
510
525
535
544
531
530
543
547
539
554
570
573
557
531
520
526
541
543
538
542
546
549
535
529
543
542
526
521
518
524
524
513
522
547
556
549
550
542
546
540
531
529
541
540
542
547
548
538
525
525
538
550
546
551
558
562
557
551
542
544
550
558
570
569
546
537
533
545
555
562
558
549
544
559
561
546
539
535
535
531
527
541
545
547
539
527
527
537
547
552
544
531
525
530
531
541
572
589
603
648
718
787
846
923
999
1023
997
929
827
724
622
519
429
365
331
314
323
341
339
357
382
414
445
467
480
494
507
506
496
493
485
479
488
495
508
506
502
512
527
534
531
520
505
506
506
507
522
527
523
524
528
510
511
522
534
540
519
506
506
505
501
507
525
546
550
552
548
540
534
536
534
535
533
535
535
535
553
580
592
590
584
586
594
579
565
570
569
577
589
606
612
610
606
603
608
612
605
607
622
631
606
601
604
610
612
619
618
627
636
631
616
604
603
594
593
596
599
598
585
577
580
578
560
547
526
516
515
502
488
476
456
450
454
463
450
429
423
410
392
389
389
395
379
369
383
385
382
377
360
346
373
399
384
360
358
366
376
369
357
350
347
356
371
378
394
420
422
417
394
377
365
370
393
413
424
430
441
442
451
432
421
430
450
456
447
434
431
442
440
455
480
481
468
455
459
470
467
465
471
480
486
491
474
453
456
463
471
481
483
477
477
477
480
477
483
494
498
496
492
482
485
499
501
507
498
482
489
499
504
495
492
492
492
501
512
508
495
492
476
464
469
480
479
475
482
487
494
500
490
477
477
494
501
510
516
513
516
512
500
491
490
486
479
470
479
489
508
510
491
490
495
491
497
497
496
493
490
491
499
502
515
527
531
540
537
536
524
511
483
473
479
493
510
520
516
504
492
490
508
530
531
511
497
496
499
511
524
511
492
498
516
513
509
513
504
492
502
518
520
517
520
510
508
496
488
493
507
517
520
519
513
512
525
518
510
517
523
521
528
524
504
489
499
521
526
529
533
522
515
526
536
523
522
525
525
529
535
532
538
518
492
502
513
518
508
502
505
510
512
503
507
516
531
533
525
525
528
528
532
534
536
522
504
510
509
517
528
541
551
560
543
517
516
502
496
510
518
523
537
546
547
545
532
540
551
541
537
528
514
494
483
478
483
504
515
513
520
523
502
500
496
500
501
507
529
565
614
675
751
842
925
989
1018
991
917
824
718
602
489
399
338
313
314
314
323
350
382
408
423
420
432
454
468
461
452
447
439
438
442
448
457
461
461
458
460
477
477
457
461
465
480
494
498
497
487
489
483
479
484
501
513
517
527
519
510
516
521
525
531
519
512
512
507
506
511
525
544
546
535
524
517
527
540
544
536
527
530
543
554
559
567
583
583
550
536
531
539
573
591
598
594
595
594
583
581
583
595
594
589
587
595
606
610
599
582
583
587
580
588
587
581
582
578
576
583
577
569
579
591
581
558
532
506
497
501
508
512
502
493
486
465
445
422
404
411
413
419
399
385
391
392
387
395
390
384
371
358
358
371
378
376
372
377
384
388
377
374
381
381
401
414
416
418
419
422
419
424
420
414
425
441
455
452
442
438
445
439
439
454
462
457
455
460
450
447
467
478
477
483
486
486
478
460
458
469
477
478
489
502
503
500
495
473
454
477
507
526
505
494
482
484
496
503
510
512
496
484
493
497
492
474
460
475
504
513
505
512
511
501
501
509
517
500
489
486
485
497
495
502
512
500
501
496
493
501
513
516
516
491
489
500
504
504
497
493
503
507
522
524
511
497
488
507
512
502
501
508
519
519
519
519
520
519
518
505
508
521
533
546
565
556
536
528
529
522
526
526
539
545
541
530
508
496
493
497
513
529
539
538
521
509
496
500
513
522
517
515
524
533
535
519
520
524
517
505
509
521
531
532
533
541
534
528
523
515
521
526
512
497
503
510
524
521
514
508
501
503
505
502
504
530
539
519
518
520
519
526
524
516
511
510
518
524
529
539
521
505
507
500
497
507
513
500
500
502
517
542
554
546
521
510
499
490
499
518
540
538
531
534
532
524
540
550
557
556
539
517
500
503
518
524
531
540
542
517
488
487
505
506
488
501
505
510
499
498
496
486
472
470
488
506
509
503
502
532
582
611
675
759
839
908
957
979
955
880
796
712
602
498
403
337
314
309
311
321
340
365
388
410
425
441
454
467
474
482
495
496
478
460
465
489
498
494
502
508
514
508
498
498
504
499
500
503
503
508
509
504
512
525
537
532
503
508
518
517
529
526
510
509
509
509
508
514
513
516
528
533
534
543
546
547
543
548
558
575
583
577
565
561
559
548
549
565
575
569
574
589
593
580
578
586
591
591
600
623
635
632
633
628
637
635
627
612
600
601
612
626
625
609
582
580
596
595
582
580
584
583
569
546
529
528
521
497
475
466
472
480
474
459
457
446
451
452
441
432
417
404
378
359
346
344
341
345
341
333
321
326
336
342
349
356
368
379
369
356
358
366
383
383
367
382
400
413
421
426
430
429
422
413
393
382
377
381
394
404
417
424
419
421
426
432
442
446
445
447
454
467
472
470
470
475
488
492
486
463
464
472
483
486
485
498
497
477
480
500
512
525
521
508
507
505
500
503
512
512
499
502
514
545
546
535
527
516
499
504
511
525
541
543
529
524
522
514
508
501
511
508
501
518
532
539
539
535
527
518
522
531
545
540
521
516
517
510
529
541
533
528
525
521
517
519
526
537
524
515
517
517
523
537
541
536
534
535
526
501
500
515
524
527
525
529
519
518
528
532
540
555
558
546
540
545
543
537
528
530
520
512
523
537
544
549
554
553
557
550
526
516
530
548
548
553
552
542
533
543
560
558
558
567
551
535
546
557
558
555
552
540
531
513
506
515
524
531
538
552
570
574
561
538
533
538
548
561
560
558
544
536
558
567
561
552
557
565
559
542
536
540
541
543
563
584
595
580
559
556
549
535
523
542
564
572
575
580
576
587
593
576
563
562
557
553
556
557
561
554
549
551
552
553
564
555
531
520
526
522
515
523
536
545
546
528
516
511
506
512
515
539
573
620
669
736
819
890
951
982
971
927
858
772
682
596
493
393
346
336
343
363
394
421
438
440
453
460
460
459
476
497
513
519
519
512
515
519
519
514
503
493
493
518
535
536
539
542
540
544
544
532
518
527
538
537
531
548
556
536
511
516
524
531
537
540
534
536
534
521
521
530
540
547
556
562
556
545
540
542
539
536
537
543
547
540
546
561
573
591
595
592
600
613
612
598
584
577
601
607
608
611
619
625
625
620
626
618
584
574
589
600
612
612
593
582
585
591
585
584
588
587
579
571
566
556
554
537
522
518
521
521
511
491
475
468
465
448
425
413
417
411
409
397
391
402
405
391
372
359
361
350
342
346
355
370
372
362
357
367
367
364
356
363
370
372
388
400
413
417
401
380
375
375
384
404
424
445
449
438
436
441
436
411
407
420
431
432
428
425
431
428
435
451
460
467
471
469
464
450
457
462
459
466
474
462
470
477
485
488
486
483
488
504
494
467
466
473
472
477
475
468
467
471
484
491
500
492
493
492
484
478
471
471
471
473
494
504
506
505
503
499
471
459
468
470
477
479
472
468
472
489
504
499
498
505
501
483
489
493
477
483
503
507
517
523
517
497
497
503
503
497
469
462
464
469
473
487
503
520
539
534
509
495
481
470
467
476
491
500
509
519
518
500
500
520
533
523
522
513
514
511
508
505
500
502
498
506
512
513
503
492
500
502
513
519
519
513
501
505
521
529
520
502
508
527
539
525
495
486
487
479
478
503
522
506
492
490
502
517
528
523
509
506
494
497
503
509
513
513
514
516
504
508
504
497
505
504
512
510
509
499
489
484
479
479
500
510
516
519
512
508
508
514
520
520
519
521
520
521
518
528
541
540
541
534
527
550
559
535
522
527
518
510
498
505
529
546
530
516
515
516
512
515
518
517
511
512
512
517
533
540
536
527
512
500
498
489
491
487
477
486
495
512
502
493
516
562
626
709
790
893
979
1010
991
940
869
783
684
576
471
382
326
304
296
303
328
358
388
414
433
430
431
434
432
445
450
462
460
458
461
458
456
471
482
486
490
488
483
461
457
472
483
491
491
478
481
476
483
504
516
516
500
483
478
486
492
504
517
521
520
513
506
514
524
520
511
513
523
530
526
524
543
545
547
546
540
535
538
551
562
569
567
551
531
532
539
555
580
594
593
589
599
610
607
600
601
592
594
596
592
589
598
613
615
606
611
612
616
624
638
632
619
602
601
592
577
560
546
534
550
567
567
547
534
527
503
483
494
491
476
449
419
420
432
433
428
419
420
403
397
394
392
402
395
391
383
366
358
362
370
377
394
409
406
396
377
373
376
380
391
408
425
423
401
389
395
409
416
418
431
445
443
437
432
423
437
454
462
471
471
459
459
462
451
444
458
470
473
472
466
470
474
484
472
460
466
462
468
463
475
483
494
493
490
488
490
490
491
488
488
485
480
475
480
481
496
499
494
486
482
490
488
475
462
451
461
479
494
500
510
504
487
488
507
512
502
488
481
483
481
484
488
492
497
511
523
507
491
483
484
478
476
483
497
509
532
546
545
524
502
499
500
490
494
501
509
515
531
544
522
506
494
500
493
503
525
522
515
517
518
514
519
523
514
497
498
494
500
506
509
508
508
501
492
496
512
525
541
551
547
537
509
493
492
496
505
518
527
533
540
545
550
544
527
499
490
498
523
538
543
527
506
503
499
512
527
531
529
524
532
537
543
545
541
540
537
544
547
539
526
507
496
498
516
527
530
535
538
539
537
532
513
498
493
503
509
509
522
530
530
538
533
531
530
519
507
506
522
535
528
527
527
543
542
540
538
540
534
529
537
543
535
522
529
519
524
524
516
523
537
543
524
517
518
516
513
518
527
531
532
522
524
519
518
523
516
506
510
516
527
529
517
505
510
500
487
491
501
523
534
510
487
488
523
588
660
745
837
920
972
994
982
913
803
687
583
493
397
324
280
268
275
293
310
338
382
405
419
424
425
429
440
444
429
442
471
489
496
486
474
467
462
469
479
484
467
477
482
487
493
490
498
495
497
514
521
512
514
519
524
527
539
538
525
525
522
521
519
517
514
509
519
532
549
526
509
504
506
519
542
548
541
545
543
548
559
571
578
574
567
568
560
549
562
570
565
570
584
595
599
591
582
571
569
569
589
609
618
615
615
608
610
607
599
600
598
592
584
582
580
588
600
597
589
577
552
548
554
558
550
519
497
495
479
466
457
444
431
425
438
430
417
415
423
434
419
391
367
371
371
367
366
382
394
390
395
388
375
384
375
362
359
366
370
391
397
386
389
398
405
398
382
368
370
387
401
420
435
421
415
417
414
418
425
426
406
410
431
431
439
439
432
429
443
434
415
403
418
441
453
458
467
465
462
468
474
481
492
477
471
471
471
473
477
481
471
464
478
489
502
500
497
501
500
506
512
515
506
498
492
493
491
485
487
487
483
492
494
505
505
502
514
519
518
515
508
499
495
519
534
525
520
513
504
502
498
509
526
521
516
509
511
526
524
505
488
479
498
518
520
525
533
526
511
515
516
528
526
512
497
498
510
527
534
530
518
509
498
508
512
505
503
508
511
502
506
516
530
537
533
534
545
544
545
550
556
556
557
550
540
538
523
515
514
518
500
490
518
548
563
567
565
544
529
532
532
541
552
554
547
555
572
569
577
584
589
589
571
554
546
540
536
527
523
543
554
555
557
564
548
558
569
579
580
565
574
578
563
560
552
553
570
584
590
582
563
554
552
552
550
539
543
552
542
543
559
582
592
578
588
596
602
592
583
585
585
572
574
571
570
577
593
614
603
591
587
593
584
567
554
546
537
517
520
529
532
539
542
540
546
552
558
557
555
550
556
552
544
549
557
563
569
614
681
748
815
897
974
1013
1013
961
860
753
643
547
469
397
360
339
344
362
375
397
427
451
468
474
491
512
525
539
556
545
523
521
517
520
531
541
541
548
551
546
545
536
527
529
556
564
551
539
534
550
564
567
556
542
550
560
560
559
562
563
571
568
562
565
589
588
572
561
544
536
543
538
525
536
557
564
575
584
582
572
573
584
578
563
559
577
603
618
625
616
625
651
665
649
625
629
631
632
629
629
631
635
641
649
652
651
639
624
620
607
600
609
605
597
593
593
588
590
585
569
557
551
557
558
537
526
516
508
507
484
458
462
470
464
466
457
433
420
402
390
389
378
374
370
370
363
352
358
349
345
342
333
330
333
346
358
360
367
378
389
394
400
383
363
370
370
370
378
391
393
381
378
388
408
423
421
420
421
418
413
421
439
453
452
445
432
428
446
453
453
439
428
432
437
448
458
452
438
443
460
466
459
465
464
462
472
486
496
485
469
474
477
467
462
472
476
498
506
501
494
487
485
480
487
497
485
495
515
524
512
497
490
497
492
508
521
509
494
494
494
490
476
478
487
487
483
486
495
488
478
482
479
475
475
483
503
502
500
490
481
484
483
483
488
494
510
519
519
521
504
494
492
484
488
487
478
474
485
495
499
505
487
479
467
464
471
481
491
491
491
488
473
467
478
498
509
515
516
501
497
493
475
473
480
492
482
483
487
472
465
462
464
466
469
476
474
479
486
488
490
496
504
503
503
501
500
499
492
478
482
492
496
504
509
501
488
473
479
485
477
483
490
479
470
477
482
483
492
509
513
509
519
518
500
489
485
492
508
516
515
508
507
507
500
505
507
510
505
498
487
483
501
511
518
519
517
534
553
549
525
514
502
505
521
514
514
530
551
551
535
527
531
542
540
542
536
526
528
543
543
544
528
514
504
511
527
522
499
491
490
497
503
494
477
479
490
500
493
493
490
496
509
516
548
593
650
727
814
907
984
1011
970
923
849
752
647
548
461
385
328
294
279
290
324
374
402
406
406
415
417
438
456
465
483
492
482
470
468
467
469
464
475
481
477
466
473
481
488
495
487
491
510
523
512
499
490
483
496
502
501
502
491
497
501
493
500
518
529
529
518
520
525
525
528
538
534
538
534
527
527
524
530
550
569
567
545
551
558
542
538
542
553
565
570
570
557
555
560
558
554
562
581
591
598
603
612
615
617
613
594
596
595
597
619
628
635
640
633
607
585
574
576
584
581
565
554
544
542
539
529
527
521
506
491
480
473
480
487
471
457
437
438
431
416
407
411
415
418
408
400
390
358
350
363
372
375
378
371
367
363
356
352
357
380
410
424
418
401
388
395
406
404
405
405
408
413
408
404
415
437
441
435
439
431
422
428
431
430
432
441
439
444
448
446
455
476
478
472
472
469
478
494
496
482
463
462
479
487
485
492
480
467
463
465
463
449
442
457
473
471
473
472
480
500
497
482
462
473
481
480
495
497
497
497
496
495
498
503
499
487
484
493
503
516
511
495
493
491
490
493
490
503
519
513
506
497
499
496
510
515
509
503
512
506
495
486
496
516
518
514
502
493
492
504
524
544
554
545
529
515
499
491
492
499
505
508
519
532
532
530
518
504
495
503
517
516
508
502
514
519
512
527
538
542
553
550
532
522
530
525
512
513
525
540
546
530
523
522
534
539
536
522
511
512
507
504
501
502
516
518
517
517
517
515
531
532
520
529
549
543
544
543
540
537
545
561
570
563
549
535
527
515
508
509
522
532
531
516
511
520
523
530
540
541
544
546
548
524
525
545
549
548
540
521
514
521
540
535
536
543
539
531
541
552
551
549
558
560
555
551
551
551
546
540
520
531
545
550
551
536
534
543
550
549
541
540
548
548
530
514
496
483
488
505
516
519
516
504
504
517
526
528
531
540
520
519
533
549
592
652
727
816
889
949
994
1001
954
868
747
623
524
437
346
294
277
265
281
307
342
367
398
421
431
432
436
447
468
484
479
469
481
486
493
464
445
450
455
459
460
474
476
481
505
520
509
489
486
480
480
479
484
499
516
528
532
527
513
502
503
499
509
519
526
527
524
511
498
499
516
539
556
548
532
532
528
535
552
567
566
556
540
537
546
551
552
569
580
573
571
584
588
589
604
610
603
590
580
588
590
584
589
607
617
620
616
620
629
622
618
615
609
600
590
578
575
582
581
571
563
553
545
553
553
550
531
511
498
487
472
455
451
455
444
430
423
415
406
398
407
407
392
375
392
398
393
385
390
395
394
390
388
381
361
346
339
358
370
381
385
391
394
393
395
390
398
395
401
400
398
409
421
417
409
403
408
415
409
412
410
403
412
415
424
421
428
436
428
424
433
444
455
461
463
458
468
478
492
489
475
474
475
497
510
513
496
492
477
448
433
416
432
448
445
456
480
496
492
476
477
481
464
422
425
451
462
484
487
472
461
454
466
471
449
420
423
422
411
401
402
432
481
478
459
477
473
387
340
318
317
321
279
235
214
207
206
220
248
267
308
344
352
351
345
340
350
324
330
389
429
449
472
489
462
451
490
522
548
574
608
651
667
680
692
738
778
813
858
875
860
800
695
607
577
570
515
428
360
286
210
152
126
116
96
66
36
20
12
7
4
3
2
2
1
1
1
1
1
1
1
1
1
1
1
1
1
1
1
1
1
1
1
1
1
1
1
1
1
1
1
1
1
1
1
1
1
1
1
1
1
1
1
1
1
1
1
1
1
1
1
1
1
1
1
1
1
1
1
1
1
1
1
1
1
1
1
1
1
1
1
1
0
1
1
1
1
1
1
1
0
1
1
1
0
1
1
1
1
1
1
1
1
1
1
1
1
8
108
248
401
542
661
796
952
1023
1023
1023
1023
1023
1023
1023
1023
1023
1023
1023
1023
1023
1023
1023
1023
1023
1023
1023
1023
1023
1023
1023
1023
1023
1023
1023
1023
1023
1023
1023
1023
1023
1023
1023
1023
1023
1023
1023
1023
1023
1023
1023
1023
1023
1023
1023
1023
1023
1023
1023
1023
1023
1023
1023
1023
1023
1023
1023
1023
1023
1023
1023
1023
1023
1023
1023
1023
1023
1023
1023
1023
1023
1023
1023
1023
1023
1023
1023
1023
1023
1023
1023
1023
1023
1023
1023
1023
1023
1023
1023
1023
1023
1023
1023
1023
1023
1023
1023
1023
1023
1023
1023
1023
1023
1023
1023
1023
1023
1023
1023
1023
1023
1023
1023
1023
1023
1023
1023
1023
1023
1023
1023
1023
1023
1023
1023
1023
1023
1023
1023
1023
1023
1023
1023
1023
1023
1023
1023
1023
1023
1023
1023
1023
1023
1023
1023
1023
1023
1023
1023
1023
1023
1023
1023
1023
1023
1023
1023
1023
1023
1023
1023
1023
1023
1023
1023
1023
1023
1023
1023
1023
1023
1023
1023
1023
1023
1023
1023
1023
1023
1023
1023
1023
1023
1023
1023
1023
1023
1023
1023
1023
1023
1023
1023
1023
1023
1023
1023
1023
1023
1023
1023
1023
1023
1023
1023
1023
1023
1023
1023
1023
1023
1023
1023
1023
1023
1023
1023
1009
992
973
961
952
940
938
954
962
952
933
921
917
913
919
920
902
891
892
895
887
868
847
847
848
837
840
835
826
820
826
821
812
812
795
783
795
804
790
775
758
750
750
754
750
739
734
730
726
718
706
713
711
691
679
670
659
645
638
634
632
625
625
624
618
624
614
600
601
604
606
596
579
564
548
557
551
546
559
574
570
567
563
551
537
539
549
556
544
518
501
484
488
501
513
504
480
463
471
478
470
454
441
426
424
410
396
409
420
427
438
441
441
446
428
410
387
368
368
372
384
387
371
363
360
354
365
365
357
354
345
329
330
324
319
316
309
310
296
294
292
292
303
311
315
302
294
299
285
273
274
261
259
261
274
287
250
236
259
271
269
251
240
243
247
243
245
267
289
274
238
209
207
226
247
254
266
277
258
245
234
221
213
216
217
219
225
220
230
229
222
233
232
228
223
231
241
250
244
246
243
228
205
193
179
169
170
174
176
174
168
161
172
170
159
160
162
168
159
164
191
235
296
379
473
557
630
669
668
627
568
487
355
236
134
73
40
23
13
8
11
27
34
56
80
89
94
115
109
104
112
111
107
110
115
116
127
133
119
98
104
117
130
133
127
135
138
135
138
133
132
139
130
121
132
146
151
143
133
134
140
122
110
115
119
124
126
133
148
157
136
133
134
117
112
112
118
129
145
160
148
141
129
120
117
113
113
128
143
146
159
169
154
137
137
156
160
167
173
171
159
159
157
161
178
197
210
208
199
200
200
203
181
170
178
186
181
176
157
148
159
151
144
135
133
127
116
106
93
74
53
47
40
26
18
19
25
31
25
13
7
4
3
2
2
1
1
1
1
1
1
1
1
1
1
1
1
1
1
1
1
1
1
1
1
1
1
1
1
12
10
9
22
15
18
40
41
21
11
11
19
33
41
52
45
25
33
44
32
22
32
47
50
48
54
78
90
88
80
70
75
85
98
106
115
120
125
117
98
97
96
89
95
109
105
105
123
118
127
136
130
138
143
139
136
130
120
122
130
143
156
173
173
167
173
176
171
176
175
158
159
177
168
151
150
161
166
164
160
179
195
193
181
196
207
192
191
198
197
188
200
211
211
215
218
217
226
237
243
238
221
219
221
221
234
237
234
243
251
241
233
227
228
242
253
251
243
238
253
262
259
258
252
244
235
239
254
257
261
258
244
245
253
268
284
292
295
290
276
276
283
281
278
277
273
285
289
290
287
281
284
301
310
307
302
296
306
319
297
269
271
272
277
278
275
272
268
274
285
291
293
296
285
278
285
290
307
309
306
302
301
291
290
282
273
276
287
289
293
302
307
328
314
302
317
308
303
308
301
291
296
305
318
319
329
343
348
345
345
351
348
328
319
324
332
337
346
333
320
324
323
334
337
330
335
325
314
316
331
325
309
313
314
304
300
300
292
284
278
283
296
298
291
274
265
265
271
281
289
299
311
322
331
366
418
488
580
670
727
762
753
691
615
518
412
310
215
126
67
39
49
80
103
118
130
146
164
185
204
216
227
236
238
239
230
214
210
218
218
238
241
251
246
228
215
215
213
227
247
258
267
265
283
281
271
265
260
245
240
248
257
255
262
281
277
261
255
267
280
292
282
254
248
265
284
296
297
285
271
251
258
285
312
310
299
305
300
313
315
293
288
296
297
302
312
327
346
356
362
363
365
372
384
383
355
347
340
331
337
345
354
366
367
373
372
373
344
327
338
357
356
339
324
327
308
314
320
317
311
296
285
280
282
275
270
263
248
232
223
212
204
190
187
194
202
211
199
181
181
186
188
192
168
161
161
156
167
177
186
186
172
173
180
196
220
218
195
188
198
204
214
223
232
242
247
246
246
229
227
240
246
248
244
247
258
278
291
278
269
271
282
284
291
296
292
283
279
283
281
285
285
280
294
296
304
304
299
304
322
327
319
304
305
318
317
313
305
307
309
301
287
295
313
319
310
301
294
296
305
307
305
306
320
326
325
324
327
323
314
329
338
327
318
307
299
306
297
296
295
316
340
324
311
332
354
349
331
322
318
320
302
298
319
346
352
342
331
325
329
339
350
366
360
326
314
310
321
323
322
324
325
335
347
351
355
350
356
345
329
327
332
335
340
346
362
360
344
345
339
341
354
345
334
328
338
358
348
330
345
362
365
371
359
352
334
334
343
338
335
336
344
341
341
347
352
353
361
371
360
352
351
344
343
340
345
341
324
325
334
352
362
365
355
341
342
346
339
338
351
361
356
343
320
305
315
334
351
358
376
383
369
366
366
370
380
359
323
318
341
362
365
365
366
365
376
376
379
381
375
362
348
349
363
365
349
346
360
386
403
395
386
384
386
386
386
382
392
397
388
378
356
335
324
333
352
361
357
358
363
367
383
377
360
357
372
390
418
469
528
588
650
715
788
840
839
778
697
608
510
417
328
240
185
170
169
183
220
258
281
304
328
327
335
335
327
321
325
333
336
352
366
344
329
327
338
350
353
354
366
361
366
388
384
382
384
377
378
382
387
397
398
398
399
407
422
411
405
414
414
406
397
391
391
391
395
389
398
411
426
425
414
413
419
427
437
430
424
424
436
449
463
476
473
465
475
493
483
475
469
466
466
488
507
521
529
519
501
491
496
510
507
504
502
507
526
533
537
534
534
518
515
509
510
501
481
481
481
483
469
455
456
464
462
457
442
424
403
389
376
358
353
343
328
333
345
348
340
319
311
302
292
285
287
286
287
285
279
289
283
265
250
262
277
278
273
278
286
303
299
283
288
292
293
289
274
272
287
303
326
338
345
352
354
355
360
359
326
313
320
331
342
345
353
373
371
358
356
363
364
362
362
365
376
394
409
416
409
395
384
375
370
379
395
413
433
420
411
401
385
388
404
411
406
402
411
413
412
415
420
423
412
419
436
434
422
429
442
449
444
437
440
448
451
458
464
450
437
436
430
421
450
457
448
445
436
420
416
407
408
432
448
460
466
449
440
439
457
467
466
470
468
465
448
442
452
464
461
446
434
446
470
480
475
474
483
486
477
475
491
493
454
442
457
463
458
467
477
489
487
478
460
463
460
465
472
475
479
475
473
471
480
481
485
475
466
464
470
480
489
479
456
472
478
468
463
450
451
465
481
479
476
477
468
464
465
482
493
478
458
461
494
513
495
476
460
458
455
460
473
474
476
484
487
477
464
454
447
442
448
463
473
481
481
471
477
476
466
481
490
489
493
497
503
503
488
474
478
486
496
495
497
487
485
493
496
494
490
502
503
485
485
501
513
523
515
517
513
506
497
482
473
472
471
462
452
477
483
482
480
474
472
469
468
480
488
472
458
457
465
476
470
476
474
471
469
467
494
551
593
655
726
799
881
930
950
926
856
772
670
559
460
373
296
277
283
289
294
311
339
366
396
436
455
455
460
465
460
446
451
445
436
427
415
412
427
442
462
475
494
498
499
481
472
485
498
492
495
489
497
509
505
512
518
513
507
495
485
484
495
503
496
497
507
512
508
505
510
503
501
519
544
537
534
536
544
553
536
528
533
547
571
565
561
562
558
567
575
570
569
568
576
575
586
601
613
616
607
604
596
587
595
611
615
625
637
645
633
636
646
636
606
587
583
581
587
584
585
585
579
582
575
556
535
534
535
520
500
494
489
487
481
463
451
441
423
403
396
391
378
366
372
383
390
395
384
377
370
357
348
354
352
354
349
349
347
358
371
366
369
377
376
374
375
380
386
395
411
425
405
381
376
381
390
406
407
388
387
395
409
420
423
427
435
423
403
417
421
414
426
444
455
460
463
468
452
430
431
441
436
431
429
445
460
461
464
467
453
450
447
442
448
468
480
468
448
443
430
442
455
444
436
437
447
471
490
482
475
474
472
475
477
491
500
493
487
493
490
484
469
457
457
455
461
462
465
460
458
475
504
508
508
498
479
481
495
500
501
501
516
521
499
493
494
486
480
481
505
509
499
501
503
500
499
493
491
492
490
496
497
489
499
511
518
504
491
483
489
499
489
484
488
502
500
480
479
494
519
518
506
499
496
505
508
516
524
510
491
495
507
514
510
505
522
515
511
502
498
508
503
510
506
499
504
515
518
512
502
495
496
496
497
500
503
509
516
522
514
513
513
513
517
509
499
500
503
505
514
517
522
540
555
542
527
512
506
507
502
497
506
517
522
519
505
496
497
507
523
532
534
548
560
543
524
531
530
525
527
527
519
519
521
529
546
558
568
558
531
508
512
527
528
538
550
549
542
526
524
530
539
535
530
536
547
553
546
555
563
550
530
519
500
491
494
512
532
534
531
519
508
500
490
481
488
503
516
519
524
529
571
641
719
804
903
976
1018
1021
977
896
797
695
598
514
419
335
285
279
303
344
392
406
407
406
420
429
446
472
481
475
473
485
505
527
545
542
524
510
505
512
512
519
515
508
503
499
502
508
517
517
518
534
543
542
528
518
527
535
532
533
524
524
540
549
553
545
536
532
532
544
549
558
556
549
543
542
539
541
548
574
585
576
572
564
562
568
574
559
561
589
606
605
609
614
622
626
623
629
629
630
627
620
631
647
629
616
606
605
630
646
647
643
639
622
616
616
615
613
616
609
591
595
592
601
594
566
537
516
530
544
534
527
516
498
488
478
471
474
473
458
446
433
414
397
391
400
408
422
425
414
394
376
373
385
389
395
401
395
388
391
399
398
398
411
408
399
392
399
413
422
421
422
427
435
445
435
420
421
433
445
442
432
433
441
447
457
459
458
479
476
473
477
477
479
469
467
476
482
488
490
483
480
488
491
489
485
473
472
472
475
473
479
477
478
502
523
518
516
513
517
510
513
513
524
518
507
494
484
489
492
489
500
502
500
509
510
507
507
517
529
524
509
500
488
484
491
515
536
540
546
544
528
518
520
520
519
532
546
555
557
544
525
502
494
493
495
484
492
505
528
536
545
546
527
507
501
509
531
533
536
533
537
530
539
536
534
548
557
568
578
563
550
548
539
541
528
525
532
533
533
537
543
542
540
540
559
583
577
564
544
532
528
536
546
552
553
543
547
557
556
539
533
532
533
531
534
533
534
542
551
557
555
560
572
572
553
540
536
542
546
557
557
544
541
543
549
553
539
535
543
561
564
545
538
539
534
542
539
529
536
539
536
546
551
567
569
562
554
558
558
556
559
566
569
574
568
555
545
535
541
559
558
549
533
534
533
538
552
568
576
577
576
565
550
546
557
544
543
551
564
560
561
557
543
531
523
510
513
523
530
526
525
522
512
511
509
511
515
520
542
555
602
658
735
819
908
992
1023
1020
963
886
802
690
593
505
412
351
322
321
328
340
353
380
400
416
442
468
492
498
502
502
501
505
504
499
499
512
533
531
515
493
484
489
501
511
520
524
516
516
519
515
514
512
537
548
548
540
542
535
528
527
538
547
551
563
567
555
543
543
549
545
546
549
548
552
559
561
556
554
561
570
580
574
565
559
553
551
565
581
604
632
653
650
641
627
609
621
635
642
633
631
637
650
636
626
635
645
642
634
627
629
628
618
617
625
620
608
602
609
617
618
614
594
574
556
558
551
530
540
529
500
477
465
462
462
464
457
447
438
421
402
399
409
414
404
383
373
374
382
388
390
397
403
400
400
385
375
378
387
381
376
380
400
411
404
395
402
413
422
425
409
405
405
416
421
429
429
428
424
426
434
442
438
432
442
454
456
455
453
461
475
473
464
442
447
458
453
452
457
476
478
473
484
493
487
500
509
512
475
456
454
467
475
472
479
484
482
474
467
474
493
507
522
506
495
493
488
493
505
515
518
520
530
539
529
516
507
498
492
500
501
499
494
500
508
530
543
533
525
517
518
520
511
498
507
507
505
510
508
508
518
525
527
528
520
521
505
481
468
467
479
486
490
495
508
522
527
519
509
516
526
531
521
494
499
512
530
535
529
509
503
506
510
521
538
535
528
507
487
494
502
510
519
525
529
521
521
513
505
504
514
534
532
540
539
526
515
504
517
532
532
519
517
516
522
538
546
538
531
521
514
505
508
514
508
510
517
514
521
533
534
529
526
525
527
534
532
508
498
507
514
518
520
525
536
544
540
530
526
528
532
513
499
509
522
538
539
534
530
530
532
541
539
539
552
555
566
564
559
557
541
526
536
547
564
576
573
555
547
559
564
550
547
545
526
516
521
521
531
536
537
542
548
550
540
515
519
529
530
526
522
524
511
503
503
498
512
524
522
528
534
557
606
646
706
784
868
948
1006
1009
955
881
782
661
539
448
378
330
304
318
343
362
379
390
402
422
449
465
467
462
460
467
469
464
465
459
452
458
479
490
485
483
479
473
473
471
478
497
502
505
498
498
504
518
504
505
503
496
500
510
506
516
519
521
534
523
512
518
528
529
520
525
537
546
540
531
521
519
525
529
540
554
561
562
565
562
549
548
552
568
576
590
602
599
592
601
605
600
592
600
618
632
641
639
624
619
621
617
622
632
631
631
627
601
600
633
645
629
613
605
597
584
574
574
583
591
570
552
531
523
522
515
504
496
487
476
460
449
443
434
417
391
381
378
382
388
382
378
379
378
388
398
378
345
329
325
337
361
375
378
383
377
374
380
378
374
372
371
368
379
383
405
416
409
402
389
389
393
402
412
413
411
405
404
424
433
432
434
426
421
426
435
443
435
415
413
429
439
448
435
425
446
467
470
460
434
423
427
440
445
450
451
446
446
449
458
467
458
452
438
441
449
456
474
482
482
480
467
457
453
443
457
473
467
464
463
451
448
447
451
454
450
453
469
477
481
483
477
475
476
463
458
470
488
487
491
497
497
495
500
501
501
493
500
500
467
464
473
486
488
483
487
488
482
482
491
501
493
483
476
469
480
490
493
506
514
505
499
493
489
494
496
499
506
524
530
524
509
499
499
510
512
510
498
485
479
485
489
493
499
491
483
482
478
476
479
493
508
507
516
512
498
505
506
494
490
497
510
509
510
516
511
509
502
511
516
505
487
487
504
516
516
501
488
504
520
532
529
513
526
521
507
504
509
516
522
544
547
535
509
511
519
532
531
533
540
523
520
524
526
531
541
548
549
543
543
534
527
546
557
547
541
554
547
543
544
552
572
579
554
542
539
545
550
568
573
571
579
579
563
550
563
566
573
569
571
562
540
527
523
519
517
535
546
547
533
516
529
545
549
532
532
554
586
647
719
795
864
924
982
1016
1003
942
849
744
624
511
414
356
319
322
338
340
348
372
411
448
464
485
482
475
482
489
502
513
509
498
496
497
508
516
515
512
514
520
519
514
499
495
520
534
532
531
510
514
527
545
541
533
551
550
558
556
542
532
527
530
527
523
531
548
559
559
560
551
529
515
518
526
523
528
557
576
585
585
586
582
579
580
574
564
560
562
571
579
584
584
597
612
618
607
602
601
607
610
623
618
605
607
603
600
589
589
591
604
614
622
622
629
618
606
597
586
564
550
535
532
542
548
547
535
512
502
492
483
479
467
465
462
469
454
439
424
406
394
385
362
351
363
375
381
392
402
404
392
385
389
385
387
380
373
367
372
376
367
361
365
377
397
409
408
408
406
401
406
400
396
406
419
415
415
438
458
454
439
433
435
441
452
448
448
452
443
442
462
478
491
493
486
476
473
482
485
479
481
482
474
481
491
490
497
503
496
485
470
469
478
482
472
482
493
502
505
516
521
520
520
521
521
517
520
520
519
519
515
507
501
508
503
503
521
537
546
533
518
517
521
530
521
533
534
534
536
542
543
522
514
522
536
548
554
540
541
544
544
556
552
552
545
530
531
538
557
560
550
541
533
524
534
545
544
540
527
535
543
536
532
521
532
556
570
566
563
568
556
536
538
549
547
554
556
552
560
562
550
539
535
544
546
541
548
548
549
547
550
552
552
533
528
537
564
575
588
585
573
549
537
536
535
535
537
551
545
526
518
524
529
527
518
527
540
547
557
554
546
535
529
528
511
511
531
554
571
578
581
575
556
534
536
561
582
584
559
532
523
532
547
552
555
560
563
557
551
537
533
544
542
538
547
562
570
565
558
561
555
545
542
541
536
535
538
536
537
540
527
514
503
501
490
482
497
519
524
503
499
495
500
526
565
612
681
756
844
931
985
995
976
916
823
717
626
534
439
357
310
288
282
305
333
367
403
432
443
443
440
446
462
465
473
488
481
475
459
460
475
485
492
492
485
479
470
460
454
473
494
503
501
500
503
496
495
500
504
513
522
499
489
498
503
506
521
510
502
515
522
528
509
498
510
524
543
548
551
548
528
526
538
549
549
560
567
563
569
592
606
613
614
606
591
596
597
588
597
607
618
613
618
622
618
613
615
623
643
645
641
634
628
631
630
635
623
623
625
600
583
584
594
593
584
568
570
563
545
533
525
528
542
537
507
485
463
458
465
459
449
442
432
414
400
390
384
383
391
396
395
392
399
417
418
398
379
347
333
341
360
383
379
373
392
405
392
387
398
405
408
403
404
411
420
425
428
426
424
435
446
457
463
460
460
474
485
469
455
456
467
476
468
467
476
479
478
474
480
476
466
462
460
449
472
487
491
483
480
481
489
491
498
494
471
477
488
500
493
491
491
496
481
458
449
451
467
501
520
528
525
501
478
478
482
482
488
486
485
491
494
501
509
505
513
523
522
523
513
498
493
497
498
511
531
541
535
520
512
500
504
505
499
501
509
509
505
509
526
534
536
529
534
536
533
526
517
517
529
537
539
527
519
517
523
523
507
504
508
515
512
523
527
519
505
501
503
513
526
513
512
513
520
533
548
536
524
513
498
494
503
500
492
494
514
522
515
507
498
494
504
498
501
514
521
532
531
512
506
509
512
508
508
513
506
515
509
493
496
513
512
510
508
508
512
521
517
507
509
519
522
511
509
522
520
516
516
513
510
509
510
512
513
514
505
499
505
520
527
536
550
546
548
547
537
533
537
528
529
532
536
539
541
543
551
541
520
509
503
500
498
497
504
524
535
522
518
526
528
510
507
508
507
489
479
478
486
496
503
493
475
466
469
480
495
483
472
477
488
504
551
610
686
772
862
929
973
981
936
862
764
641
538
