023
1023
1023
1023
1023
1023
1023
1023
1023
1023
1023
1023
1023
1023
1023
1023
1023
1023
1023
1023
1023
1023
1023
1023
1023
1023
1023
1023
1023
1023
1023
1023
1023
1023
1023
1023
1023
1023
1023
1023
1023
1023
1023
1023
1023
1023
1023
791
419
225
122
68
38
22
13
8
5
4
3
2
2
1
1
1
1
1
1
1
1
1
1
1
1
1
1
1
1
1
1
1
1
1
1
1
1
1
1
1
1
1
1
1
1
1
1
1
1
1
1
1
1
1
1
1
1
1
1
1
1
1
1
1
1
1
1
1
1
1
1
1
0
1
1
1
1
1
1
1
1
1
1
1
1
1
1
1
1
1
1
1
1
1
1
1
1
1
1
1
1
1
1
1
1
1
1
1
1
1
1
1
1
1
1
1
1
1
1
1
1
1
1
1
1
1
1
1
1
1
1
1
1
1
1
1
1
1
1
1
1
1
1
1
1
1
1
1
1
1
1
1
1
1
1
1
1
1
1
1
1
1
1
1
1
1
0
1
1
1
1
1
1
1
1
1
1
1
1
1
1
1
1
1
1
1
1
1
1
1
1
1
1
1
1
0
1
1
1
1
1
1
1
0
1
1
1
1
0
1
1
1
1
1
0
1
1
1
1
1
0
1
1
1
1
1
1
1
0
1
1
1
1
1
1
1
1
1
1
1
1
1
1
1
1
1
1
1
1
0
1
1
1
0
1
1
1
1
1
1
1
1
1
0
1
1
0
1
0
1
1
1
1
1
1
1
1
1
1
1
1
1
0
1
1
1
1
1
1
1
0
1
1
1
1
1
1
1
1
1
1
1
0
1
1
1
1
1
1
1
1
1
1
0
1
1
1
1
1
1
1
1
0
1
1
0
1
1
0
0
1
1
1
1
0
1
1
0
1
1
0
1
1
1
1
1
0
1
1
1
1
1
1
1
1
1
1
1
1
1
1
1
1
1
1
1
0
1
0
1
0
1
0
1
1
1
1
0
1
1
1
1
1
1
1
0
1
1
1
1
1
0
1
1
1
1
1
1
1
1
1
0
1
1
1
1
1
1
0
0
1
1
1
1
1
1
1
1
1
1
1
1
1
1
1
1
1
1
1
4
10
16
25
37
48
58
66
72
78
86
93
104
116
127
135
140
144
149
156
164
175
187
196
202
208
213
219
228
239
250
258
262
264
269
274
283
294
303
311
316
320
323
327
334
345
354
361
365
369
375
380
389
398
408
414
417
419
422
426
434
442
450
457
461
463
466
470
478
487
494
500
503
504
505
508
516
525
534
541
542
543
546
551
559
565
572
576
578
580
581
585
592
599
605
610
612
614
616
620
626
632
640
645
646
648
652
654
658
665
673
678
680
680
680
682
690
696
702
705
706
707
708
709
714
721
728
731
730
730
731
732
737
743
749
752
753
754
755
757
763
770
776
779
780
779
779
782
788
793
797
799
799
798
797
796
800
806
812
815
814
814
814
816
822
827
832
835
834
833
833
833
837
843
849
852
851
850
849
850
854
858
860
863
863
860
860
862
867
872
877
879
876
875
877
879
882
887
892
894
894
893
893
894
897
901
905
907
906
906
905
906
910
914
919
920
918
917
917
918
921
925
928
928
928
928
927
927
931
935
938
939
939
937
934
932
934
939
944
948
947
946
945
945
947
949
952
953
951
950
948
947
951
956
960
962
962
962
962
962
965
967
970
970
967
966
965
965
968
972
976
978
977
976
975
974
977
981
984
985
984
982
980
979
981
984
988
990
989
987
985
984
987
990
991
992
990
988
987
985
987
990
994
996
994
991
989
989
991
995
997
996
992
990
988
987
990
992
994
993
991
988
987
987
990
991
994
996
993
990
989
988
990
993
996
995
990
988
986
986
990
995
998
998
995
992
991
991
994
996
999
1000
996
993
990
988
991
995
998
999
998
996
992
989
991
996
999
1000
999
997
993
990
992
993
995
995
991
988
987
986
989
993
996
998
994
990
987
985
986
988
991
992
990
987
986
987
989
992
995
996
994
992
988
986
988
990
992
991
988
985
983
982
985
989
991
990
986
981
979
978
980
983
985
985
982
978
976
977
981
983
985
985
983
979
975
972
974
977
979
979
977
974
972
969
971
973
976
976
973
970
967
966
970
973
976
975
971
967
963
959
960
964
968
968
965
961
957
956
959
963
966
966
964
959
956
954
956
959
962
962
958
954
952
950
952
953
955
955
952
951
949
948
949
951
954
956
954
951
947
945
945
948
950
950
946
943
941
939
941
944
945
943
940
936
933
932
936
939
943
942
939
935
931
929
931
933
936
936
933
929
925
924
926
928
929
929
926
923
920
920
922
924
926
924
920
916
913
911
914
917
919
919
916
912
909
908
911
914
916
914
911
907
904
903
905
907
909
907
903
900
899
898
899
900
902
903
900
896
892
889
889
892
894
894
892
890
887
886
888
891
894
891
886
882
881
883
886
887
890
890
888
885
883
881
884
885
887
885
880
875
871
871
874
877
880
878
874
870
868
868
870
871
873
873
870
865
861
858
860
863
865
864
862
861
859
858
860
863
865
864
860
855
850
847
849
852
856
856
853
849
847
846
849
852
853
853
850
846
845
844
845
847
849
848
846
843
839
838
840
842
843
842
839
836
833
831
832
835
837
836
832
829
826
826
828
831
833
832
829
826
823
822
823
826
829
831
827
823
819
817
818
819
820
820
818
817
816
815
816
818
820
819
815
811
807
805
806
808
812
813
813
811
808
805
806
807
810
810
807
803
800
799
801
803
806
805
803
798
796
796
798
801
802
800
795
792
789
789
792
796
800
800
797
794
791
789
790
792
796
797
794
791
789
787
789
793
795
795
792
787
785
785
786
789
791
791
786
783
779
777
778
778
779
778
775
774
772
773
774
774
776
777
774
771
768
766
768
770
772
772
766
761
757
757
760
763
767
766
762
758
753
752
754
757
759
760
756
752
749
749
751
754
755
755
751
749
746
746
749
752
756
757
753
750
747
746
748
751
754
754
751
748
745
744
747
749
752
750
746
741
737
737
741
745
747
746
742
740
737
736
739
741
744
743
739
734
731
730
734
737
740
740
735
732
728
727
729
731
733
733
731
729
726
725
728
731
735
734
730
726
721
719
721
725
729
730
725
721
718
717
720
723
726
724
721
718
715
713
716
719
722
722
718
714
710
708
710
712
714
714
712
710
707
705
707
712
716
717
714
710
706
703
703
705
707
707
703
699
696
696
699
703
704
703
699
696
693
694
697
701
703
701
697
695
693
693
696
696
697
697
693
691
689
688
690
695
697
696
692
688
684
682
684
687
692
693
690
688
684
684
688
691
694
692
689
685
680
680
683
686
689
689
686
682
678
678
682
686
688
687
684
681
679
679
681
683
686
687
684
680
677
677
678
679
682
681
679
677
674
672
674
675
678
677
674
671
668
667
669
671
675
676
673
669
666
664
667
670
672
671
667
664
663
665
667
668
670
670
667
664
661
660
662
666
669
669
665
661
658
659
662
665
667
666
662
657
653
651
654
658
661
661
657
653
650
650
654
657
660
660
656
653
650
648
651
654
657
657
654
650
647
644
645
648
651
649
646
645
642
642
644
646
648
648
644
640
636
636
640
643
647
648
646
644
640
638
640
644
647
646
642
640
637
637
640
642
644
643
641
638
634
632
635
638
642
643
641
638
636
636
638
640
642
643
640
634
629
627
629
632
636
635
633
631
629
629
631
634
636
636
632
628
626
625
626
630
634
634
631
626
621
619
620
621
625
627
625
621
617
616
619
622
626
627
624
620
616
615
616
619
623
624
623
620
618
616
617
618
620
619
616
614
614
614
617
620
623
623
620
618
615
614
615
618
620
621
619
617
614
614
619
623
627
626
622
618
613
610
610
613
616
617
615
613
610
610
613
616
617
615
610
607
605
606
610
615
619
620
616
612
610
610
611
612
613
613
612
609
607
606
606
609
612
611
609
607
604
602
604
607
609
609
608
606
605
606
607
609
611
609
607
604
599
598
601
605
608
605
600
598
596
596
598
601
605
605
603
602
600
600
603
607
610
609
605
601
597
595
596
599
603
603
600
596
593
593
595
599
601
601
597
592
588
588
592
596
599
598
595
592
588
586
589
591
592
591
588
585
583
583
586
590
592
593
590
587
584
582
581
584
589
590
589
585
582
580
582
586
589
588
584
580
578
578
580
584
588
589
586
582
579
580
583
584
585
583
580
578
577
577
579
583
585
585
582
579
576
576
577
578
580
580
579
578
577
576
578
581
584
583
578
572
569
569
573
578
580
578
574
570
568
568
571
574
575
574
572
571
570
570
573
576
580
578
575
572
569
567
569
572
575
575
572
569
565
564
567
572
576
576
574
571
568
566
567
571
577
577
574
569
568
567
570
572
574
572
567
563
561
561
565
569
574
574
571
568
564
564
565
567
569
569
566
563
559
558
561
566
569
568
565
562
559
557
560
565
568
567
564
561
558
558
560
563
568
569
566
562
558
558
560
563
565
564
561
560
559
557
558
559
561
561
560
559
556
556
557
561
565
565
562
559
556
555
557
561
566
567
566
563
560
559
563
566
568
566
562
558
555
554
557
562
567
566
561
558
555
555
557
560
561
560
558
557
555
554
557
559
562
562
559
556
552
551
552
555
559
560
558
555
552
552
556
560
563
563
559
553
548
548
551
556
561
561
558
555
551
549
551
553
555
554
551
547
544
545
549
552
556
556
552
548
545
545
547
551
555
556
554
551
548
548
549
551
553
552
548
545
543
544
547
550
553
552
548
545
541
541
543
545
548
547
544
543
540
538
539
542
545
545
542
538
537
538
541
544
547
546
542
538
535
535
540
543
545
543
540
537
535
535
537
540
543
544
541
537
533
533
536
541
546
545
542
538
536
534
535
538
542
543
542
539
537
536
539
543
547
547
544
541
538
538
540
544
546
546
544
542
538
535
535
538
542
541
539
539
539
540
543
547
551
549
544
540
538
537
540
543
548
549
547
543
540
539
541
543
547
549
547
544
541
541
543
546
549
549
546
541
537
537
540
543
546
546
544
541
539
539
541
544
548
548
544
541
538
538
541
546
550
549
545
542
540
540
542
544
547
546
543
542
540
540
544
547
550
548
543
540
536
535
537
541
546
547
543
538
535
535
538
543
547
546
542
539
537
537
540
543
546
545
542
539
537
536
539
542
546
545
543
540
537
537
541
543
545
545
542
540
537
535
537
540
544
544
541
538
534
533
536
538
541
540
538
535
532
531
534
538
541
541
537
534
531
531
533
536
536
535
532
531
530
530
533
537
541
541
536
533
530
529
531
533
536
536
534
531
527
526
528
531
534
534
532
529
526
525
528
532
535
533
529
527
525
525
528
532
535
535
533
530
528
527
529
532
534
534
530
527
525
524
527
530
533
534
532
529
526
525
527
531
536
535
531
527
524
523
526
530
534
533
530
528
525
524
527
530
533
533
530
528
524
523
526
529
533
532
528
525
521
520
522
523
525
525
522
520
518
519
522
525
529
532
530
527
522
519
521
526
532
532
529
525
521
520
521
524
529
529
524
521
519
519
521
525
528
527
525
522
520
519
524
527
528
527
524
521
518
516
518
522
526
525
522
518
514
513
517
521
525
525
523
521
519
520
523
524
525
525
523
520
516
514
517
520
524
523
519
518
518
518
521
523
524
524
520
517
515
513
514
517
520
519
516
515
512
510
513
516
520
521
519
516
513
511
514
518
522
521
517
513
511
512
516
519
523
523
521
519
516
516
518
521
524
523
520
518
516
517
521
526
529
528
525
521
519
519
521
524
526
525
521
518
516
515
517
520
522
521
518
517
514
513
515
519
521
519
515
513
512
513
515
517
520
519
514
511
510
512
515
518
520
520
517
514
510
509
512
514
516
515
511
509
506
506
508
510
512
512
510
507
504
503
505
509
514
514
510
506
505
506
509
513
516
515
512
508
512
508
508
510
513
1023
1023
887
1023
728
387
207
713
299
287
723
379
207
688
1023
1023
578
1023
575
297
296
735
820
433
764
296
302
742
827
435
778
1023
571
1023
569
294
309
751
825
432
787
290
307
741
828
432
796
1023
559
1023
555
287
310
742
807
419
799
285
311
736
797
412
805
1023
550
1023
545
283
313
732
781
401
810
280
314
729
766
392
814
1023
540
1023
535
277
314
724
753
384
819
274
317
724
737
374
823
1023
528
1023
524
272
322
727
728
369
830
269
329
735
722
365
837
1022
519
1015
514
267
336
