488
485
462
467
499
519
532
526
508
504
518
537
523
509
507
508
521
528
526
517
513
513
499
494
499
522
526
517
510
519
523
512
514
517
527
523
509
541
547
538
532
519
509
501
504
510
529
510
488
504
512
511
523
516
504
530
552
557
548
526
523
548
548
539
532
539
564
575
564
557
553
534
527
542
546
533
517
511
520
543
572
577
582
588
580
574
567
558
569
586
590
572
563
550
527
525
521
514
523
514
528
542
540
520
510
529
551
553
521
505
502
502
505
511
537
557
574
564
542
534
524
503
503
510
529
544
554
552
539
522
512
514
547
599
654
705
754
825
875
900
886
840
786
695
569
478
436
390
361
364
368
377
397
441
457
471
488
482
487
477
487
523
548
558
559
557
550
561
560
558
559
565
553
554
531
518
546
569
579
573
570
560
556
548
557
570
586
605
609
596
562
563
563
574
596
594
576
561
564
566
564
571
587
592
603
600
595
596
600
607
616
627
638
639
628
627
617
628
627
620
598
597
617
623
636
668
681
672
655
668
687
679
656
651
654
653
634
615
609
611
616
603
598
588
572
564
562
562
550
527
519
528
537
534
514
496
476
464
458
460
452
438
432
441
449
440
432
437
430
424
438
462
466
457
465
478
484
500
491
475
435
423
431
448
456
458
460
464
450
458
465
457
472
493
503
507
495
479
483
491
489
487
484
479
470
490
506
511
526
533
522
501
491
507
528
518
486
471
482
498
499
509
523
519
503
493
492
499
495
494
502
492
473
467
487
513
516
512
493
481
489
492
490
511
537
539
533
530
512
510
515
503
491
488
496
494
493
505
511
515
518
503
482
480
463
491
537
541
532
532
500
477
462
458
470
493
510
498
496
513
516
514
510
520
527
526
517
491
482
485
490
506
513
511
496
475
484
500
496
482
479
490
510
529
537
526
528
533
528
506
489
484
494
496
505
503
501
497
498
490
484
485
492
531
550
537
530
522
511
499
482
461
476
490
484
492
490
506
521
535
536
519
501
498
503
514
521
539
553
550
544
523
505
504
510
548
578
565
549
548
526
499
474
454
454
462
472
481
484
469
450
435
437
432
445
474
492
487
458
451
453
467
486
479
457
445
439
429
428
452
468
482
516
500
454
418
416
434
463
488
530
588
638
682
734
793
824
829
789
723
618
497
389
314
277
262
258
261
281
298
320
350
390
411
414
431
461
477
458
455
476
461
453
454
446
464
480
474
442
432
441
460
483
491
483
490
503
500
493
495
486
483
479
463
467
492
524
518
521
503
499
499
495
512
522
518
518
511
481
455
470
494
509
520
545
554
535
518
537
548
554
560
539
537
537
539
542
571
587
585
583
596
585
582
582
597
602
602
592
569
562
558
552
552
577
598
596
587
580
560
539
533
503
492
484
475
450
426
427
441
431
414
401
407
404
388
387
409
404
382
376
385
382
386
398
396
385
382
388
377
381
399
396
395
378
372
391
417
435
452
440
417
413
407
407
427
430
425
413
408
428
442
444
453
442
440
443
434
426
427
434
421
429
456
475
486
483
444
417
429
451
459
472
478
466
443
452
453
452
455
454
448
454
473
492
503
503
485
470
469
473
476
474
472
475
470
470
460
457
457
467
479
476
443
438
451
492
525
498
487
471
470
461
449
463
474
479
482
472
476
482
491
509
500
484
480
487
491
491
498
507
502
489
461
465
472
477
480
480
467
472
488
493
489
485
504
506
487
472
472
470
472
489
503
498
490
492
487
479
477
489
502
496
495
485
474
465
464
472
477
478
483
491
501
512
509
504
519
510
482
487
494
499
508
510
510
486
484
498
501
487
481
506
519
518
511
501
496
496
511
546
541
531
523
516
497
493
504
523
547
554
542
521
514
534
538
507
485
476
474
477
474
458
463
463
461
464
476
476
472
473
472
478
487
478
481
473
472
473
460
442
440
441
456
470
493
479
482
498
499
483
481
494
494
534
588
630
702
793
840
846
823
775
716
620
496
391
327
284
251
238
246
266
307
339
388
422
440
443
448
444
435
453
488
498
497
497
509
510
505
499
497
499
503
497
500
502
507
498
483
484
489
517
548
546
522
511
513
508
482
481
496
507
518
528
545
543
522
513
501
503
505
510
539
559
557
555
549
552
556
558
551
553
570
583
605
597
587
599
592
584
588
598
588
580
598
616
627
621
638
646
624
600
607
624
617
607
595
592
572
577
595
596
581
555
540
543
531
510
508
523
518
492
475
456
449
445
428
416
425
422
409
401
409
415
415
416
424
432
428
417
404
405
400
417
428
412
402
408
417
436
440
424
421
438
443
443
436
420
424
462
482
461
442
442
444
435
438
464
501
503
481
480
472
462
471
490
504
491
481
493
497
497
485
482
482
486
477
466
486
503
504
501
519
539
539
516
474
458
455
458
482
486
488
494
502
499
496
516
521
507
488
478
480
477
480
498
521
510
500
509
514
526
524
515
496
475
468
469
494
507
514
523
528
519
511
528
517
479
482
516
532
515
502
518
531
529
516
527
535
520
503
495
503
506
517
518
518
519
530
542
560
548
522
501
497
490
478
487
506
514
514
517
535
530
527
532
532
511
491
503
532
547
549
567
579
562
534
534
559
571
564
579
578
577
564
560
553
539
516
496
480
481
498
496
489
478
472
498
505
497
517
519
500
491
479
474
484
491
510
513
505
502
512
511
515
516
500
503
512
507
508
494
495
499
512
535
572
615
667
726
783
818
841
840
767
682
575
451
371
319
295
281
278
281
289
329
380
417
448
479
497
505
502
493
507
514
509
517
519
505
505
529
556
557
551
542
516
507
503
505
511
518
528
544
539
534
554
551
552
541
548
536
524
521
541
549
534
526
540
553
551
552
557
559
557
572
586
579
575
563
560
565
564
581
602
627
628
610
606
602
598
600
609
613
612
619
639
622
615
630
633
637
638
624
620
627
628
617
604
619
637
638
621
599
586
585
582
558
535
530
523
513
503
486
479
476
462
458
458
451
438
424
421
424
419
412
402
393
400
417
419
412
432
428
424
451
444
419
418
407
413
430
429
445
456
461
465
463
463
463
451
455
451
455
460
457
455
459
471
478
483
480
492
487
489
485
482
483
481
487
493
490
491
497
488
479
490
505
501
500
519
527
504
493
513
511
505
483
471
468
472
474
472
481
469
460
476
487
487
511
538
543
540
526
532
527
512
529
543
526
512
504
502
506
503
508
504
506
516
518
519
531
537
530
524
527
523
506
493
519
521
509
506
493
507
526
523
512
522
531
527
543
550
525
510
515
516
492
500
514
496
481
497
518
529
518
521
538
539
548
557
535
526
526
516
519
537
553
553
553
547
532
549
566
569
577
593
574
548
538
570
584
572
563
565
597
591
531
475
468
493
509
530
522
499
502
520
513
510
505
512
541
529
515
515
501
513
525
533
541
533
526
522
512
532
543
549
544
550
528
510
512
514
533
576
622
682
753
805
852
918
919
854
773
681
568
473
402
343
320
318
326
332
367
386
388
418
438
452
481
529
554
568
545
505
501
532
548
541
537
524
522
525
523
521
529
528
520
539
555
563
554
538
523
536
565
555
527
528
559
561
538
554
560
555
549
551
550
559
568
569
567
557
553
553
543
568
591
575
561
574
554
559
560
576
573
584
613
609
606
596
574
560
551
585
630
638
620
591
604
620
631
640
638
626
630
644
637
623
599
584
556
560
559
567
572
564
539
515
503
505
507
490
465
449
444
450
453
439
421
416
436
459
460
447
444
432
422
422
422
436
447
426
416
424
438
455
459
423
408
444
470
473
476
491
505
517
508
522
523
509
494
474
479
492
479
465
471
494
499
505
507
493
494
489
480
479
496
502
488
486
494
494
522
535
552
549
544
554
556
551
530
508
487
484
502
508
504
511
500
487
501
526
568
587
544
517
508
529
538
528
526
502
517
552
557
558
579
558
552
576
582
576
584
595
579
562
557
556
547
541
528
536
556
547
533
545
542
549
548
548
558
556
532
531
539
537
552
577
578
577
578
572
562
550
531
532
547
555
552
518
521
544
545
541
531
543
543
550
563
581
567
547
547
543
528
531
510
479
479
492
484
490
487
471
463
461
482
506
517
492
480
483
468
464
480
480
483
479
488
495
481
482
488
452
439
457
465
452
465
522
567
592
652
715
777
828
855
856
808
743
679
576
449
334
262
236
236
227
216
273
335
375
383
402
437
459
463
467
455
454
447
441
460
469
482
472
457
456
457
470
479
489
493
469
464
484
489
464
456
450
468
494
505
511
528
524
501
493
485
486
483
485
508
500
481
477
495
517
535
531
509
504
519
535
524
516
515
515
515
514
541
539
549
575
596
570
550
562
575
565
566
567
574
575
589
592
607
618
626
610
604
604
588
577
580
581
567
548
548
564
556
547
533
520
511
464
466
472
437
423
423
434
435
411
405
405
405
386
378
379
391
387
379
381
379
370
372
376
404
423
412
414
414
420
413
407
403
392
387
401
431
440
437
434
419
428
440
454
464
449
412
398
403
416
426
456
471
484
497
500
504
482
472
466
447
460
468
462
456
444
453
473
493
482
481
500
505
492
489
500
513
513
502
482
479
484
479
476
476
462
465
484
503
509
505
499
512
514
501
488
487
504
516
528
530
494
456
450
465
482
499
518
514
514
479
468
474
483
497
497
500
507
518
515
505
507
516
542
562
542
532
534
524
527
545
553
534
543
563
541
510
487
480
480
482
468
463
466
477
479
506
505
474
461
478
489
474
474
490
478
449
459
463
472
492
516
514
489
474
482
497
518
514
513
494
456
461
517
575
618
656
708
758
814
872
911
886
830
749
635
510
412
338
276
218
195
240
305
349
377
403
433
478
496
496
500
503
509
511
504
497
506
507
498
504
504
508
509
502
517
538
546
549
557
557
528
505
518
533
537
539
543
525
513
522
525
538
556
562
551
543
542
546
568
581
563
561
548
545
561
572
548
540
549
561
576
589
573
578
619
629
611
608
614
608
600
604
622
619
613
622
648
682
665
643
637
643
638
640
638
640
642
647
645
649
647
657
643
597
566
562
558
554
536
504
488
463
445
451
472
486
477
460
454
466
471
474
472
456
439
425
427
440
425
412
419
433
428
446
467
487
474
456
453
470
470
459
450
472
493
500
484
457
435
440
452
456
470
488
486
493
486
476
486
491
511
500
488
476
484
499
502
499
505
518
504
485
491
501
513
509
512
532
517
509
518
538
539
530
503
483
496
489
485
506
506
480
479
483
486
497
504
529
535
527
517
518
528
516
510
495
505
500
492
488
503
526
528
509
505
531
530
521
514
511
518
541
530
517
511
492
490
484
498
528
535
541
533
527
518
530
559
576
540
523
534
550
560
571
545
508
487
481
474
486
501
497
482
463
470
487
484
478
485
493
481
471
461
464
459
473
481
481
497
517
490
449
430
432
451
469
502
524
516
472
433
403
432
499
539
573
617
680
750
804
881
910
862
800
731
602
458
348
300
266
238
239
246
262
282
304
350
396
433
445
458
450
467
478
470
477
470
472
497
510
471
444
457
476
473
469
479
475
472
476
457
457
485
500
502
506
508
496
494
503
505
500
512
534
528
508
491
485
486
487
499
511
522
526
528
539
526
516
534
539
533
540
559
551
526
523
546
564
574
597
602
604
608
599
596
591
572
587
585
583
572
556
561
594
607
601
620
632
622
621
608
578
563
560
544
526
514
519
519
492
460
448
417
405
420
428
426
436
432
407
400
416
413
382
357
355
351
373
389
399
423
433
436
423
417
423
413
419
423
408
403
430
459
462
469
466
465
446
421
418
441
451
448
440
440
448
452
482
496
484
457
458
475
468
442
423
442
480
495
507
495
498
484
483
494
497
512
526
526
525
528
528
522
513
511
513
515
511
479
493
509
495
500
506
504
509
503
496
504
496
503
526
549
537
511
484
483
490
514
532
544
527
522
534
530
551
539
526
533
528
526
534
547
563
554
538
530
534
544
544
536
541
553
557
555
539
555
567
575
585
595
585
581
587
563
509
492
492
506
526
549
546
536
516
505
505
490
499
514
531
552
540
532
532
524
526
537
524
513
483
464
486
507
535
558
552
530
525
524
523
510
499
511
556
606
636
685
765
866
927
938
904
841
745
631
521
449
404
353
310
270
269
311
351
385
429
490
522
514
476
476
506
525
530
508
494
502
519
535
531
515
526
537
538
538
542
545
560
577
584
555
518
504
493
500
532
512
493
484
494
510
504
514
523
521
532
560
579
568
555
536
512
527
555
578
581
569
554
554
559
540
558
575
562
536
536
576
619
628
632
625
620
624
621
616
634
645
643
662
655
638
637
638
630
629
638
644
639
621
605
578
562
561
558
559
566
547
524
511
516
504
500
499
483
480
495
496
470
442
425
429
427
431
423
418
427
438
432
447
479
472
437
405
409
420
432
420
392
408
436
451
450
484
518
518
491
471
468
458
452
443
461
494
501
492
491
511
502
485
487
506
501
487
488
470
452
487
524
525
487
485
500
515
523
514
498
482
488
508
525
543
550
530
513
520
534
534
537
520
507
509
520
517
527
513
499
520
521
512
506
514
504
516
511
510
506
520
542
531
524
526
536
539
533
506
477
502
519
514
528
531
509
499
503
514
507
512
533
552
549
546
563
569
553
547
564
577
570
559
536
514
491
479
467
472
479
494
506
502
499
496
491
481
486
497
481
479
486
480
462
438
426
452
488
514
513
502
505
515
511
495
492
502
477
451
450
477
512
571
639
689
715
755
807
846
847
792
700
606
483
366
298
264
274
281
280
299
328
360
376
400
432
448
451
464
499
508
514
507
476
496
517
505
476
482
488
476
473
469
493
501
516
535
515
520
535
542
540
506
484
493
516
507
510
531
531
528
539
535
511
495
496
498
504
510
536
546
531
517
500
512
525
535
548
563
562
567
578
598
596
594
592
574
571
568
569
588
580
589
591
579
579
575
578
600
611
619
620
625
630
605
575
575
583
574
572
566
546
543
542
501
483
477
471
483
489
471
442
434
409
403
408
429
436
418
402
377
362
346
342
375
414
413
409
390
384
401
421
425
428
408
392
398
401
408
417
425
433
452
481
465
446
414
396
409
430
418
429
442
454
462
451
463
478
455
442
443
447
436
451
465
478
488
487
490
476
464
473
480
482
493
497
481
474
456
446
448
466
456
454
470
466
478
488
498
490
480
453
446
460
478
496
497
476
476
477
498
508
501
489
492
498
486
477
486
498
495
498
508
509
514
490
468
476
488
497
506
512
491
453
477
513
538
553
563
551
527
504
507
538
560
566
560
537
522
514
522
512
495
481
467
463
449
463
498
487
452
423
432
460
468
465
474
481
493
509
513
486
471
477
493
500
484
469
473
494
507
502
489
495
474
446
458
491
540
593
652
701
773
830
855
844
800
731
620
502
403
341
279
254
249
256
287
326
360
390
420
449
460
475
485
485
501
508
496
494
497
487
480
485
490
505
529
501
496
526
526
521
526
531
536
508
479
487
516
533
523
517
543
542
535
529
524
531
536
543
552
556
555
564
548
530
521
526
526
518
508
525
549
561
540
529
547
574
567
577
590
617
618
617
612
587
595
606
601
609
618
620
622
632
646
646
657
665
641
618
607
583
571
572
571
557
544
532
523
527
528
494
481
465
475
490
503
494
460
455
447
421
413
412
415
428
435
415
397
409
413
401
407
424
437
427
425
459
458
427
421
409
413
418
432
463
471
448
440
456
474
481
475
465
454
482
497
490
485
484
502
511
495
476
478
484
480
487
464
472
496
505
502
506
502
492
500
512
531
524
516
508
490
499
504
511
503
492
469
456
478
485
512
532
525
531
524
518
494
473
473
506
545
541
524
499
478
479
486
498
507
497
483
482
498
515
518
520
523
509
493
485
496
509
513
530
533
512
515
513
521
566
595
557
505
498
505
524
529
527
512
508
521
530
532
540
541
558
579
580
551
531
529
512
500
500
502
518
518
504
473
464
479
481
473
484
489
491
500
497
511
516
517
512
527
502
488
478
463
462
487
507
495
470
463
442
439
441
464
524
580
627
681
718
756
805
863
888
863
803
692
559
452
377
340
320
310
320
330
341
359
379
411
429
435
454
471
466
462
476
487
499
515
519
494
480
482
497
511
510
505
494
493
496
497
519
542
522
513
516
520
531
534
546
546
528
514
524
531
515
518
514
514
525
520
517
529
543
526
544
565
555
542
534
544
572
572
571
579
585
571
548
551
569
577
606
595
584
597
601
600
615
613
614
618
632
631
616
603
595
607
631
633
634
620
587
572
572
583
584
578
572
549
515
504
498
513
521
513
508
480
463
454
442
435
413
406
426
425
412
401
386
403
437
436
423
438
467
474
460
441
430
443
456
476
456
448
456
448
449
461
481
477
457
443
443
450
441
450
495
527
515
480
452
463
477
498
505
484
465
473
473
463
473
479
479
486
509
519
504
478
470
498
508
493
495
507
508
495
483
508
535
545
531
510
501
496
502
506
507
517
510
487
489
486
484
499
513
516
508
508
518
504
491
496
518
540
538
533
525
517
502
500
492
491
496
511
513
504
505
513
532
527
513
520
525
527
532
524
529
518
506
507
505
524
541
552
535
508
495
503
515
526
523
520
504
496
523
543
565
563
555
558
563
563
565
559
534
557
577
587
537
526
519
508
495
506
484
479
488
502
516
499
474
472
489
492
507
502
481
479
500
533
527
487
472
486
504
517
516
506
492
490
476
467
489
500
505
505
541
584
631
688
747
799
832
870
875
833
762
671
548
454
378
334
313
300
296
320
359
396
425
422
449
461
477
491
467
477
497
507
512
492
491
488
500
508
494
508
528
522
523
508
493
486
494
484
485
523
527
509
517
513
511
526
551
577
577
555
537
532
561
555
549
545
558
540
526
522
515
524
543
554
553
556
555
561
571
588
583
583
583
580
574
565
568
604
617
593
584
599
603
596
606
615
612
627
647
645
635
636
643
646
632
608
610
592
566
556
553
548
544
540
516
487
486
493
470
455
445
444
450
458
440
426
428
410
407
416
400
405
413
405
405
418
443
460
461
455
419
395
405
444
449
450
455
468
451
423
438
478
474
456
448
453
458
435
426
449
483
480
464
441
434
433
428
450
464
463
464
474
493
508
519
501
499
504
502
492
495
492
500
500
512
529
522
491
481
483
461
452
464
456
467
478
473
472
473
473
466
480
503
497
487
499
506
510
505
518
531
530
526
505
506
502
487
492
507
512
502
489
499
533
530
495
488
477
482
481
507
524
516
506
501
490
486
492
506
527
515
507
535
535
510
498
500
507
514
526
518
492
485
492
484
491
515
511
516
503
504
512
505
503
505
517
523
536
511
488
476
490
519
520
510
524
527
530
554
573
573
561
555
561
573
595
571
527
504
525
534
523
511
501
499
503
517
518
504
472
472
495
509
491
447
426
437
463
485
479
475
508
500
489
494
495
474
460
465
485
500
491
481
485
503
499
463
450
480
528
564
595
633
674
720
760
819
871
853
789
716
624
515
430
367
312
297
299
294
325
390
430
423
442
445
434
428
421
439
473
494
484
474
493
486
472
495
509
514
519
508
493
483
490
488
487
504
512
514
517
516
514
495
472
478
485
490
510
529
523
536
558
547
529
536
538
528
519
500
483
487
487
520
543
555
569
577
578
577
552
529
528
531
539
555
577
596
606
611
596
566
537
572
597
600
592
591
609
618
619
635
651
658
647
619
596
588
586
587
552
523
533
534
512
496
493
503
503
507
507
483
449
432
435
443
451
470
475
451
424
410
422
416
394
384
404
421
415
393
377
392
405
429
446
428
405
390
398
424
445
451
443
429
414
419
420
451
491
488
473
460
451
463
483
494
498
496
484
469
468
465
460
463
475
484
499
471
442
451
474
482
467
460
470
471
480
491
494
502
499
492
473
457
470
473
460
477
513
532
522
506
516
533
544
519
494
483
474
459
459
475
495
502
520
543
534
499
466
457
452
468
498
510
516
508
489
473
474
515
529
507
497
507
530
517
498
498
501
504
515
520
526
535
534
523
517
509
506
501
516
518
501
515
519
508
508
506
500
505
512
510
499
485
476
486
496
504
527
536
554
540
533
520
487
494
512
520
514
507
513
524
516
514
523
518
507
504
504
501
493
495
525
554
554
547
556
535
519
553
550
535
544
562
567
550
548
550
548
542
543
528
533
509
489
463
470
486
504
522
512
489
482
483
473
469
476
482
473
482
499
512
508
521
536
530
515
491
484
496
511
515
501
509
519
542
559
613
649
688
740
789
851
884
871
834
800
724
603
476
391
340
306
257
244
280
327
378
406
428
448
475
478
471
487
492
506
506
492
486
505
544
534
496
501
516
526
516
500
505
497
485
474
472
519
556
551
526
504
503
505
514
518
517
537
556
553
524
509
515
526
533
515
508
528
541
541
533
542
537
555
565
568
566
585
595
581
565
540
530
548
554
569
607
585
561
568
605
629
637
601
577
582
597
614
621
602
591
586
585
595
634
651
638
615
615
624
612
597
581
559
550
527
495
478
467
451
452
444
426
448
467
455
434
434
427
415
431
448
458
432
426
420
426
439
433
444
480
494
491
451
428
428
435
450
477
486
473
450
437
455
467
470
472
457
451
458
472
481
474
467
483
490
489
489
489
505
505
488
481
489
503
519
519
509
497
508
496
494
503
492
498
510
512
483
473
490
525
536
539
518
509
525
521
504
498
496
486
481
493
501
509
505
506
516
520
526
522
500
489
501
511
521
530
530
498
494
498
483
464
460
488
503
514
539
553
548
521
507
507
527
553
541
516
498
507
499
477
451
432
418
415
445
481
500
495
495
482
472
470
454
455
474
507
513
506
516
533
529
519
512
516
497
484
483
492
532
554
535
535
543
523
497
494
491
467
444
450
473
478
447
435
439
451
455
448
432
445
467
464
443
457
470
466
465
469
487
512
520
522
504
479
467
464
455
451
451
471
487
493
524
587
646
690
747
789
807
811
783
726
631
504
375
290
257
263
262
261
303
352
392
421
417
423
447
471
490
515
528
546
539
522
505
500
495
502
512
536
529
516
532
531
516
511
526
543
547
558
582
569
545
546
543
526
528
539
515
526
565
581
592
582
569
567
553
542
539
553
570
581
594
588
569
558
556
578
596
608
627
636
625
620
614
617
617
597
570
571
591
621
602
612
642
663
650
644
667
663
647
650
655
649
632
603
575
570
583
588
591
603
608
610
591
555
528
523
515
503
496
466
435
432
431
422
425
425
421
421
420
406
394
417
433
419
402
395
386
390
405
399
402
408
426
439
440
438
436
430
449
472
471
463
445
430
411
429
446
466
481
499
484
473
459
440
429
430
452
464
468
474
486
502
521
516
509
476
465
476
498
520
520
517
515
501
513
524
533
551
563
526
484
468
451
457
481
483
501
519
531
514
495
516
536
514
495
491
486
508
510
519
517
512
518
534
513
521
508
482
485
512
536
543
535
532
529
505
499
510
520
525
513
496
504
525
532
539
549
516
488
480
494
515
537
534
533
531
500
492
509
535
571
592
593
562
521
500
506
523
548
576
598
592
600
590
565
546
512
500
510
506
484
475
498
528
530
511
490
486
485
468
479
509
484
451
464
481
478
482
477
492
502
509
489
476
488
502
526
544
536
518
492
498
524
572
617
660
707
759
836
872
852
790
727
652
528
425
359
313
294
285
299
311
332
372
418
436
435
438
482
515
518
520
519
530
523
507
489
472
481
490
503
527
527
507
496
496
512
530
552
558
551
543
550
553
556
547
534
519
528
520
485
496
531
542
543
557
558
546
563
559
542
540
565
593
595
562
537
538
544
547
548
550
555
575
573
562
586
591
597
601
591
583
596
613
630
633
625
618
614
639
641
628
613
601
595
601
612
616
611
617
612
595
584
570
554
543
550
534
511
489
459
469
487
471
466
468
447
430
436
429
407
402
414
419
438
435
423
417
412
407
429
445
440
438
430
415
397
389
402
424
439
459
458
457
473
482
467
466
478
486
492
485
480
482
472
455
464
496
499
489
487
483
484
508
519
499
462
462
463
478
486
481
488
481
479
489
498
489
476
501
524
526
524
512
500
504
499
490
502
519
521
509
495
482
481
504
501
487
493
499
516
518
507
511
523
525
528
545
543
555
553
518
507
503
496
491
498
483
488
507
518
529
516
516
516
516
515
527
517
501
502
502
525
552
567
576
580
572
581
567
544
547
552
544
541
544
547
528
508
516
526
527
506
498
495
491
508
531
513
485
481
493
497
492
474
488
496
501
522
527
517
514
522
517
508
507
515
526
530
522
507
482
484
475
475
503
543
581
625
688
749
802
855
900
887
825
744
655
536
448
381
314
290
291
291
314
354
404
441
467
490
508
514
526
528
518
497
501
511
513
503
502
500
511
534
539
544
542
536
541
535
526
541
546
545
550
554
565
556
535
551
570
579
584
582
554
537
542
538
524
531
545
550
571
571
567
575
567
558
559
570
574
577
585
598
589
589
570
568
604
617
616
620
622
612
609
609
616
630
636
623
625
612
605
640
663
655
655
631
618
630
642
626
612
617
628
628
613
608
573
537
518
518
498
497
514
507
471
431
396
383
410
452
469
470
470
451
435
445
460
447
426
419
410
421
430
435
453
478
479
461
443
448
454
464
503
493
479
467
471
468
461
441
449
471
482
466
477
508
512
524
507
497
507
493
483
474
472
479
505
482
480
502
517
495
461
457
500
540
532
505
492
495
495
499
513
507
488
506
521
501
501
503
504
528
528
528
527
523
525
513
507
496
488
500
521
528
540
532
523
511
508
505
499
506
517
557
560
524
503
512
519
509
493
490
484
510
536
534
526
536
547
540
559
570
570
566
558
545
557
568
549
535
528
519
533
523
494
470
475
508
507
481
468
459
463
479
479
500
496
479
457
444
451
504
510
493
502
510
509
502
507
495
484
489
482
475
481
460
457
471
493
520
564
619
679
734
797
868
884
850
800
736
636
507
393
322
282
254
246
271
318
349
360
370
400
444
479
479
473
469
460
466
488
518
504
493
499
507
490
459
460
495
516
518
499
494
496
499
497
507
506
499
520
527
529
534
538
539
537
525
520
512
510
530
524
514
517
522
514
536
526
495
498
525
519
512
516
540
568
578
571
553
554
565
582
593
590
580
589
596
593
602
581
580
599
591
575
562
596
614
595
574
571
575
579
591
609
596
561
547
543
529
530
532
525
506
487
478
462
449
424
411
425
429
432
422
395
391
396
393
402
397
397
419
394
383
388
405
430
424
405
394
407
422
406
395
388
385
404
426
431
432
430
430
438
454
461
456
448
443
451
438
430
437
453
461
458
450
459
462
469
459
462
450
430
422
425
432
458
448
441
474
482
482
477
469
458
463
467
466
452
461
470
484
499
486
450
465
508
510
493
468
432
410
426
445
460
464
480
490
481
461
449
454
461
471
475
475
487
483
483
485
488
484
480
492
507
499
493
508
545
552
517
486
487
493
496
502
481
446
458
466
463
461
463
458
457
467
481
491
492
490
468
454
460
471
481
480
479
481
478
473
479
483
472
472
483
498
500
490
494
497
472
450
453
463
483
539
603
654
699
749
789
799
805
789
730
652
546
436
362
310
277
259
257
276
307
343
383
417
440
465
453
453
456
460
473
486
491
496
480
471
493
506
512
504
482
482
473
463
461
470
472
502
529
524
520
524
521
517
513
534
553
533
512
520
535
530
538
559
561
506
498
490
493
484
493
502
496
507
535
557
559
566
540
522
531
555
576
591
586
571
560
563
573
591
604
578
599
609
619
632
635
609
592
590
597
602
596
606
613
608
599
594
586
566
561
549
526
520
530
520
498
486
464
444
434
432
449
455
435
416
401
413
428
430
417
397
378
389
412
411
400
392
392
391
402
427
448
448
440
433
433
426
416
420
426
445
453
450
450
467
470
460
463
464
457
469
479
470
456
481
494
463
426
424
440
466
474
460
448
479
516
516
505
506
503
502
494
478
488
500
513
505
490
491
507
512
506
485
476
461
473
489
485
478
498
523
501
477
488
507
493
492
497
512
517
531
547
543
552
541
533
528
520
535
544
526
507
499
500
488
484
500
479
456
468
499
514
508
494
501
495
497
500
502
490
461
429
445
466
472
489
508
517
499
493
503
503
492
496
501
488
477
479
492
525
554
582
643
696
753
812
828
837
814
743
651
519
396
331
306
292
295
284
291
322
337
380
430
453
473
495
509
515
526
524
507
498
499
502
491
494
506
508
519
529
534
534
530
517
536
544
548
561
538
531
538
534
520
516
502
505
513
518
519
518
512
514
535
548
542
532
531
522
525
536
531
558
581
564
546
552
555
552
566
564
562
574
586
602
606
606
617
648
635
619
629
627
611
610
619
620
631
630
606
594
594
619
633
626
616
578
560
569
575
567
527
527
535
526
511
493
471
464
458
451
447
454
457
456
443
420
432
437
397
396
398
379
389
392
377
393
415
439
450
440
428
418
426
440
434
434
438
441
447
458
457
460
463
451
454
459
463
446
444
465
488
479
476
497
480
468
480
495
496
485
508
506
468
459
455
451
457
476
483
491
490
482
469
468
480
508
531
534
527
510
495
493
505
507
503
487
488
499
529
535
524
522
527
534
537
527
517
521
524
519
529
541
508
484
507
509
508
536
546
539
523
523
534
545
555
553
538
520
509
489
473
490
505
512
527
528
521
519
513
480
465
502
523
512
480
483
512
512
499
481
477
499
503
487
486
491
494
483
488
489
488
493
476
475
483
518
541
580
603
627
672
737
802
849
869
846
799
737
635
527
432
362
321
300
298
303
338
360
390
425
458
480
487
492
477
454
446
468
493
507
512
501
506
522
532
537
531
522
515
511
504
511
528
543
531
525
536
523
524
530
531
514
502
512
544
554
563
569
558
544
550
543
533
535
539
556
556
548
543
562
593
595
577
575
574
584
582
561
546
556
580
604
604
599
601
614
626
643
629
615
624
632
613
618
607
595
614
612
602
619
628
614
594
595
594
595
591
578
555
550
549
534
531
533
515
496
450
421
434
437
435
445
452
445
421
404
418
429
437
431
451
448
438
419
409
429
447
448
441
446
461
462
458
476
493
491
476
474
480
488
465
448
451
454
456
468
487
474
473
473
470
466
465
492
512
509
477
470
483
501
502
501
511
493
485
492
490
497
508
511
528
522
517
523
522
526
527
516
496
487
488
500
497
496
508
507
501
489
501
528
532
540
534
530
533
527
532
521
518
527
522
518
503
499
499
504
519
531
545
555
555
559
535
512
548
549
556
568
550
529
534
537
519
513
497
486
495
512
515
532
527
497
479
483
494
514
502
450
447
467
498
517
516
499
484
488
492
480
466
474
467
464
466
457
451
469
502
545
586
630
691
746
799
856
902
894
833
735
651
542
461
393
326
262
236
268
297
321
364
411
450
462
478
505
505
487
482
488
473
456
482
523
525
491
487
478
488
509
506
503
510
516
513
517
537
549
558
551
543
546
550
536
531
551
538
523
520
531
535
530
544
547
531
519
521
536
559
565
560
549
564
560
531
544
553
570
579
588
580
582
586
586
590
592
601
599
611
626
618
639
659
649
620
598
590
584
603
632
636
629
602
584
591
601
603
584
546
531
539
552
538
518
507
500
476
466
473
468
457
457
439
432
444
444
429
429
429
420
416
423
445
442
423
402
396
412
434
456
450
445
459
476
467
446
444
442
446
466
480
486
465
453
456
460
454
441
450
477
485
478
490
489
469
459
479
483
488
497
508
510
501
492
480
480
474
477
490
490
489
495
510
521
538
524
501
486
504
509
519
501
479
479
496
522
513
503
497
503
501
510
530
532
523
512
496
495
500
510
504
500
501
508
493
504
527
532
532
537
545
531
523
512
513
529
526
530
533
537
537
529
507
502
519
553
561
552
552
568
575
561
562
557
538
528
542
557
560
542
554
544
529
522
510
506
491
494
500
501
506
518
518
509
504
497
483
488
467
470
494
498
504
508
501
487
499
529
545
517
487
500
518
510
497
494
493
501
526
550
572
610
655
707
762
827
899
911
846
763
691
568
450
367
316
281
258
265
280
312
363
405
445
463
485
502
505
508
503
496
509
519
519
503
495
502
527
539
536
536
534
538
534
540
547
545
539
535
526
511
502
510
522
517
531
551
532
512
530
545
534
539
546
561
553
530
523
531
526
521
541
559
550
558
558
561
572
589
609
621
608
589
568
560
557
572
583
609
608
601
595
603
603
627
638
633
625
623
634
633
632
645
642
609
588
589
582
576
568
543
529
518
526
534
523
504
505
488
455
459
473
457
432
445
449
446
446
445
425
408
395
390
390
398
400
416
423
436
446
442
466
472
453
422
420
423
415
399
428
461
450
442
449
469
465
459
463
468
473
440
437
442
447
457
467
483
495
498
508
497
477
476
477
475
486
486
482
491
498
496
493
485
469
463
463
470
493
499
481
495
486
470
478
513
521
504
489
478
489
497
500
497
500
503
495
501
502
497
497
494
501
506
494
492
505
506
499
490
479
477
485
495
505
496
497
506
494
489
501
478
488
513
524
529
513
504
492
492
507
501
512
514
520
505
501
494
514
517
509
500
499
505
502
507
506
493
493
484
483
498
521
528
530
526
507
484
484
498
517
530
518
502
504
520
523
526
537
545
548
542
513
502
492
511
514
502
519
538
531
519
532
559
562
573
575
571
554
544
541
524
531
539
518
500
493
476
456
462
495
531
520
467
439
439
455
475
496
520
526
494
457
459
476
487
493
484
484
492
493
491
485
496
511
504
495
498
491
478
496
535
584
648
713
774
835
869
864
839
812
725
577
461
378
301
239
221
230
274
318
355
379
381
408
449
472
470
488
513
509
492
484
482
482
483
495
493
507
519
514
515
531
519
503
502
503
501
502
494
505
505
509
520
522
534
554
558
546
535
541
524
496
484
507
544
563
558
557
566
539
521
522
538
562
580
570
544
517
518
544
564
556
556
555
559
575
591
600
621
631
630
635
620
607
597
607
631
642
622
611
604
604
594
576
580
597
596
594
583
581
578
576
550
514
506
492
502
511
501
486
469
472
456
425
405
394
381
390
412
410
417
425
426
429
428
441
431
412
398
403
422
429
417
417
405
391
395
419
443
442
449
467
476
468
440
438
440
440
438
438
451
458
470
468
446
441
467
474
466
461
468
479
477
477
456
462
503
516
510
496
485
494
498
494
505
491
472
473
485
493
492
492
489
467
462
498
533
535
504
469
455
452
458
482
505
521
509
480
465
462
489
512
509
508
514
509
508
479
474
499
494
472
476
483
502
525
523
514
514
491
485
491
501
496
489
495
484
482
498
511
532
533
506
487
493
510
524
532
512
500
494
483
471
488
495
499
497
480
480
504
511
525
528
532
541
530
509
506
514
516
517
521
526
528
556
565
549
541
547
554
543
542
537
539
541
519
499
481
476
491
504
518
492
479
476
474
485
471
454
464
465
496
507
497
496
507
502
514
508
492
477
474
483
486
478
473
465
468
476
487
497
516
512
496
509
527
575
634
694
750
793
819
849
828
755
636
497
388
318
288
284
279
263
266
298
343
390
410
426
447
466
494
500
508
524
531
515
515
512
498
490
478
509
537
542
540
534
517
503
520
543
560
548
532
519
508
520
525
542
536
528
528
537
543
542
536
545
530
516
509
514
541
565
564
559
554
550
553
548
557
570
576
573
566
566
571
575
588
570
562
576
594
612
606
590
609
629
632
637
621
612
617
625
627
633
610
614
612
601
595
595
594
588
583
584
574
562
529
509
499
489
497
502
474
458
461
466
463
439
432
428
407
403
411
410
393
381
369
369
407
442
436
422
409
402
413
414
415
423
448
467
475
468
448
432
425
418
419
447
483
491
466
450
441
442
464
472
466
468
474
487
482
470
453
455
455
452
464
473
480
487
487
476
483
494
530
524
504
490
494
500
487
480
487
496
507
505
507
503
488
486
484
489
496
496
488
489
525
540
517
524
519
494
483
482
481
490
497
498
501
497
505
470
465
496
509
514
504
504
513
515
511
492
478
476
488
507
518
512
499
513
526
516
508
509
519
531
538
532
532
552
546
501
452
450
464
497
505
498
489
488
479
485
518
534
536
534
522
512
506
496
496
519
532
546
530
528
535
519
511
519
508
507
510
519
524
543
563
564
552
565
564
532
528
532
527
542
550
555
552
547
558
549
534
534
542
526
499
492
464
465
484
504
506
489
488
479
462
466
471
469
467
473
479
496
496
480
472
470
468
493
515
534
544
529
515
520
492
492
502
503
498
502
528
592
661
701
756
809
842
840
815
774
685
570
443
364
306
267
248
257
279
313
361
394
418
451
453
460
479
485
474
481
499
520
539
525
524
512
495
492
493
502
525
552
565
550
522
507
509
523
525
513
501
509
519
529
538
548
529
520
527
535
519
503
521
544
564
552
544
541
542
552
552
550
554
570
575
583
573
571
580
594
586
579
588
585
577
573
557
586
615
618
625
616
617
609
595
600
614
618
613
608
606
604
606
613
621
625
617
614
627
593
553
536
530
554
576
564
548
533
518
504
483
460
459
451
438
431
432
421
418
435
436
429
417
417
418
434
431
418
432
457
481
478
466
462
448
438
430
437
448
448
462
462
465
477
488
500
495
476
455
467
471
467
486
485
484
502
499
494
509
506
506
509
506
495
481
482
503
507
488
487
492
482
470
482
499
517
533
538
539
544
542
535
531
526
524
500
495
486
496
505
508
506
516
530
518
515
508
500
506
516
526
519
513
515
516
524
515
541
559
532
509
497
481
481
486
497
523
520
527
533
537
528
526
510
495
512
522
519
530
538
540
529
520
509
521
520
514
515
516
509
512
520
530
534
537
530
520
521
525
520
506
505
499
499
517
526
537
529
506
489
476
478
499
502
523
524
513
510
516
523
519
513
509
516
533
545
548
545
547
555
562
555
578
592
570
564
559
559
555
535
515
490
478
481
501
509
494
480
488
484
477
477
473
477
464
468
466
482
485
472
471
485
495
484
479
490
475
486
494
505
517
511
478
474
485
491
491
500
558
627
693
736
760
808
844
828
774
718
638
514
413
347
319
295
270
263
282
317
376
412
421
454
465
485
491
478
468
470
478
466
457
460
481
504
521
519
516
516
527
517
493
498
513
507
492
492
507
510
516
525
525
518
529
509
491
508
534
538
516
503
508
526
536
555
560
545
536
546
557
558
548
539
527
553
578
561
522
509
515
527
529
545
546
540
537
547
565
560
553
564
565
555
534
534
541
540
541
542
550
560
552
546
547
565
578
573
553
543
537
530
499
499
533
540
538
564
590
584
544
545
539
518
547
602
613
587
568
575
587
592
579
582
599
609
590
562
565
593
587
577
582
602
592
589
590
568
542
550
545
554
574
559
546
557
577
578
549
578
605
614
619
609
595
575
595
609
593
589
589
581
584
579
563
553
551
555
557
541
536
538
529
518
519
520
520
512
497
482
484
502
508
507
503
515
500
457
447
468
499
487
462
447
456
475
502
514
511
499
475
448
453
462
473
478
438
411
391
386
382
369
337
321
343
327
301
310
285
262
233
187
143
130
130
133
124
116
104
111
143
160
146
144
167
217
247
261
255
244
244
236
238
240
251
272
293
319
327
312
308
330
338
341
352
354
369
394
419
419
414
399
386
393
396
404
415
416
434
431
429
441
461
471
463
461
453
464
480
494
503
508
514
500
496
501
461
421
421
435
427
435
448
458
460
451
464
460
461
453
443
447
475
490
487
482
502
493
486
507
522
516
494
483
480
480
493
502
501
489
497
504
527
552
610
684
754
816
856
891
871
819
794
727
588
454
370
327
310
293
287
306
339
385
423
447
462
476
485
494
500
514
528
538
552
565
569
558
532
531
541
545
557
574
590
577
556
553
554
552
546
555
553
555
571
580
577
581
601
593
575
553
546
550
556
554
567
583
582
574
580
570
557
549
542
543
553
576
584
578
586
598
601
597
598
601
594
571
571
573
575
606
639
655
649
629
608
611
609
614
633
636
652
657
648
630
622
633
637
644
648
648
642
601
578
562
554
545
533
518
500
501
507
495
476
467
470
460
451
449
455
470
460
441
430
423
447
462
467
476
475
459
446
463
483
487
487
480
488
495
468
450
449
463
472
477
470
478
508
521
528
500
479
470
467
454
452
477
506
520
530
517
526
532
524
517
515
504
509
523
528
529
536
547
535
514
511
510
535
528
512
514
525
535
523
497
490
498
529
527
524
526
507
504
517
525
528
515
518
526
542
546
538
548
561
553
515
515
559
559
544
533
517
503
507
522
521
521
518
527
543
542
548
565
546
531
521
517
507
490
496
525
539
531
515
519
540
547
541
532
524
525
528
547
573
560
550
552
525
503
515
527
540
532
519
517
533
536
541
551
553
553
562
599
621
597
580
578
586
594
606
587
552
532
538
533
515
491
487
485
482
481
486
488
498
498
509
522
519
510
497
498
508
506
502
495
493
495
515
521
518
511
512
524
538
539
534
521
509
499
517
546
580
630
697
768
815
828
837
819
793
751
656
522
400
335
310
285
274
274
297
338
373
404
446
487
508
488
476
486
499
494
489
487
507
515
533
551
538
535
548
527
504
504
513
528
540
558
554
542
541
522
517
533
542
543
532
523
538
561
561
564
559
550
535
517
543
578
589
567
559
572
574
558
554
575
581
589
586
575
584
588
606
613
602
594
597
605
595
614
640
627
640
642
639
636
621
616
615
625
651
664
664
650
652
633
609
592
599
615
625
591
561
562
546
524
512
519
526
526
502
470
440
424
441
438
411
410
409
403
413
429
440
439
427
429
439
440
423
390
388
396
407
418
428
436
452
445
447
441
438
448
431
421
431
444
455
489
507
486
458
461
461
461
463
476
493
482
463
458
467
483
469
466
492
513
512
502
493
483
481
477
457
461
489
506
518
516
514
503
477
468
484
483
485
514
518
506
498
498
490
488
503
496
478
499
524
504
499
501
489
487
487
479
482
489
498
522
519
492
469
499
507
489
488
501
495
498
507
512
509
505
539
548
525
518
526
516
539
567
573
555
552
562
592
602
582
560
563
567
560
525
519
519
522
514
518
511
489
492
521
536
522
525
528
527
505
495
494
496
484
473
468
470
471
465
467
482
485
496
507
510
510
524
516
502
471
458
456
471
493
555
626
679
732
810
872
868
822
757
679
583
465
370
325
291
265
247
248
286
347
391
411
432
460
486
498
509
486
486
503
493
479
486
506
529
543
553
542
533
537
546
551
557
550
538
544
553
544
523
539
554
537
522
523
530
527
527
542
551
582
575
536
528
533
537
554
556
556
554
542
534
545
563
587
579
581
604
605
579
570
568
578
576
577
590
609
620
611
604
611
627
657
652
620
601
598
619
627
616
622
631
632
625
614
601
599
583
588
576
559
537
537
544
531
516
510
520
519
495
455
426
422
413
417
431
444
436
414
431
430
423
434
448
432
415
407
418
420
433
414
423
442
427
415
422
419
421
423
430
440
444
468
475
461
463
452
454
471
480
478
472
481
472
463
458
458
467
485
496
493
490
488
478
480
482
486
509
526
519
506
485
471
461
460
486
500
503
483
477
477
491
500
497
494
485
491
487
488
496
496
507
512
500
482
483
503
493
491
497
519
517
514
515
489
486
482
502
515
514
495
497
516
515
508
503
489
471
477
498
509
490
486
499
505
516
523
536
522
500
495
494
511
530
537
535
518
509
517
514
536
544
550
563
573
581
594
566
527
507
489
468
469
470
476
505
494
476
482
488
487
508
515
514
516
515
537
532
502
516
545
554
502
450
456
476
480
478
472
482
492
495
491
495
503
522
541
564
603
666
742
795
822
834
823
784
728
649
541
420
325
281
279
263
255
275
301
347
397
420
446
448
447
479
500
494
503
528
536
518
519
515
501
489
491
501
509
515
527
538
518
488
489
468
460
476
478
468
510
533
516
506
510
520
547
527
520
517
494
492
508
526
530
542
542
554
557
551
564
553
530
535
551
559
554
558
574
580
567
559
564
546
558
581
599
623
655
659
621
581
568
577
603
623
633
627
618
620
628
627
624
614
612
600
584
564
553
550
540
522
510
505
525
538
509
471
459
449
430
418
406
404
439
449
458
467
460
461
456
455
459
462
436
436
436
421
426
423
429
445
441
442
435
421
427
460
462
446
429
416
400
410
418
432
447
446
421
420
426
433
443
446
469
482
490
484
492
502
497
503
480
484
480
456
438
428
434
449
479
482
471
469
478
469
462
473
473
473
461
459
471
469
466
467
449
461
479
474
464
485
484
470
475
483
494
520
543
547
534
511
484
464
485
519
538
528
505
511
529
517
496
484
482
507
515
508
500
483
490
502
495
489
508
504
506
524
532
529
527
527
523
524
525
544
538
546
549
545
538
525
534
551
563
566
567
566
556
536
510
497
491
507
523
508
490
481
494
490
483
484
474
474
457
439
439
468
493
482
467
472
496
516
506
479
487
497
504
513
509
498
496
485
470
466
467
467
475
525
592
665
703
729
792
826
841
843
799
717
591
476
409
366
307
256
236
269
308
337
362
411
440
456
474
474
468
477
475
473
486
492
490
473
470
484
481
472
468
463
457
466
484
493
509
525
521
529
540
539
521
511
533
523
504
502
490
479
486
517
548
562
551
533
530
538
540
534
536
544
555
548
538
546
547
552
570
566
558
561
576
600
611
609
603
593
609
638
628
611
605
606
633
638
614
599
612
620
626
620
621
626
617
641
648
634
623
609
590
563
559
564
558
541
528
517
520
501
474
464
466
481
477
460
462
470
464
441
418
412
401
400
411
432
458
464
414
382
404
440
469
488
478
458
442
439
446
474
478
469
483
479
474
498
513
504
486
480
477
477
490
496
506
509
486
476
479
469
460
475
486
474
471
468
477
481
468
476
503
508
504
493
475
459
457
472
482
486
494
520
514
476
477
488
476
468
482
488
497
496
474
457
472
490
495
500
525
543
535
512
495
485
483
493
490
492
487
487
502
512
506
523
531
514
488
486
491
491
499
517
527
514
507
520
519
503
498
499
502
493
496
506
492
491
488
490
500
503
501
503
519
528
517
503
514
530
542
527
523
536
556
564
584
610
599
554
534
536
538
543
542
546
548
526
524
507
487
462
466
468
464
473
479
502
505
474
460
485
472
470
475
483
495
498
481
480
498
499
496
495
492
494
505
514
517
511
500
494
490
516
548
581
615
672
739
812
868
877
841
784
720
592
438
352
313
275
247
265
299
329
347
386
443
475
467
457
462
475
480
493
492
488
501
539
539
520
513
515
516
511
534
540
524
490
487
499
512
518
516
515
509
499
507
522
528
535
544
543
541
528
530
532
534
544
555
536
514
506
496
517
547
559
560
562
587
569
530
513
522
553
568
572
569
573
576
573
575
591
596
597
614
617
599
595
599
617
605
596
606
617
628
617
610
603
588
569
581
607
592
575
567
564
547
511
488
481
475
473
483
498
471
445
445
465
466
445
419
399
398
390
382
389
387
407
414
420
416
420
423
425
417
414
421
417
401
396
413
419
424
430
430
454
469
479
468
456
464
471
463
450
441
447
465
487
497
469
458
469
476
483
488
485
473
477
473
447
439
446
469
477
479
481
474
468
476
495
493
474
470
482
484
502
513
520
515
501
497
509
504
496
501
507
510
501
502
503
491
499
508
473
475
499
501
458
440
464
489
509
504
496
493
487
498
512
502
504
510
513
507
506
506
490
503
518
521
500
494
496
500
502
498
516
522
513
483
481
488
479
493
540
549
530
519
499
497
502
518
524
517
514
519
516
509
523
529
539
542
550
561
559
555
549
548
547
557
570
589
570
537
514
499
482
480
496
497
501
500
496
492
494
506
495
488
480
470
467
487
505
501
484
488
484
489
501
510
515
523
530
510
502
491
494
478
458
452
474
503
525
578
650
710
732
772
820
866
862
814
755
667
546
436
382
341
301
284
275
301
351
389
413
401
412
448
463
489
522
533
522
505
496
477
475
500
519
519
521
513
508
507
496
487
513
533
543
541
544
562
559
560
550
530
503
506
519
539
536
517
530
564
562
549
547
556
578
565
546
545
540
532
523
525
541
571
605
594
581
577
584
564
552
555
573
588
590
591
595
599
623
645
642
642
649
647
626
625
623
622
625
615
611
624
627
608
588
594
601
599
617
620
594
548
523
512
498
496
490
466
450
446
435
430
449
432
431
453
451
445
441
446
463
463
431
434
449
449
440
414
382
390
408
422
447
449
446
457
456
457
460
453
458
450
446
436
460
484
479
463
476
478
466
463
480
501
496
491
496
501
492
492
497
509
510
492
480
483
509
511
504
516
534
530
527
520
499
489
490
508
499
484
486
496
503
505
509
495
499
503
499
503
502
517
522
500
480
483
513
505
481
474
489
506
489
493
526
529
530
524
517
518
519
505
489
478
480
502
521
504
482
495
515
524
507
493
494
514
522
518
551
566
536
508
507
524
506
520
535
535
519
518
516
541
546
535
539
547
557
558
570
577
577
575
560
554
541
516
487
499
507
518
522
508
467
462
470
474
484
484
492
504
505
515
517
522
520
506
509
507
500
492
482
478
487
490
493
508
501
488
487
473
456
458
478
537
585
635
696
739
774
820
856
858
825
756
648
499
388
322
279
255
259
262
277
323
364
395
449
492
502
501
505
506
499
491
497
508
524
535
514
493
491
494
498
524
532
534
517
534
537
535
556
546
517
515
517
527
541
546
545
556
560
551
528
535
535
551
557
565
544
532
552
549
534
540
557
557
561
564
557
573
568
576
582
579
580
571
552
553
575
610
626
624
622
615
607
612
614
619
622
637
643
628
612
614
622
625
634
642
630
612
590
566
573
589
587
560
557
548
513
485
488
485
474
460
446
455
437
428
432
416
421
428
425
437
434
415
407
408
415
434
447
452
446
447
417
406
405
415
428
444
446
443
445
414
418
430
430
430
447
490
498
475
448
447
458
458
461
464
469
463
453
471
501
518
529
533
501
479
475
489
499
496
484
468
462
474
490
456
448
480
494
510
511
497
512
510
498
491
482
495
500
495
496
499
472
460
490
522
515
496
486
489
490
506
527
517
488
487
509
507
494
501
524
526
514
491
469
487
510
510
525
520
508
491
479
479
469
483
519
538
534
514
499
514
520
516
526
509
491
494
517
526
511
475
464
474
504
530
526
529
548
546
506
491
516
538
514
509
517
505
489
501
516
530
528
502
507
519
515
512
524
526
554
548
541
560
574
576
568
542
533
550
556
538
540
543
530
500
494
500
505
511
507
499
484
456
453
463
486
489
488
477
472
470
480
510
527
485
470
485
489
490
490
499
496
494
492
488
479
462
467
483
513
575
645
706
744
778
819
854
854
798
736
661
553
446
371
319
306
298
286
294
319
361
400
429
449
461
456
455
464
485
510
503
505
512
515
509
499
488
496
508
498
508
522
520
523
501
494
508
521
520
521
522
515
514
531
535
549
554
551
541
540
541
534
517
517
524
545
561
555
539
546
560
561
557
559
569
562
540
544
540
537
542
559
581
590
588
590
589
574
578
587
596
601
583
584
613
640
627
598
598
622
636
622
618
628
609
591
584
598
620
620
617
605
567
552
531
499
475
453
465
494
478
443
426
419
406
392
394
407
430
446
430
417
406
402
427
443
418
405
406
417
434
447
431
425
431
446
460
449
447
470
454
458
465
461
453
454
456
450
443
422
432
468
483
481
468
469
462
472
474
480
485
493
478
470
474
478
491
469
464
491
513
513
506
485
469
480
507
518
514
506
494
494
495
491
482
480
481
490
507
510
504
496
492
495
496
496
502
517
524
515
489
477
489
508
526
512
504
506
507
519
540
536
515
500
496
503
501
501
494
503
489
481
506
503
504
518
513
514
524
512
517
531
513
504
505
506
506
514
524
537
530
511
490
494
529
539
533
513
520
547
535
522
521
529
529
506
496
511
520
537
533
527
524
548
554
540
556
542
514
509
512
514
520
527
545
554
557
569
552
549
560
576
594
590
591
560
513
510
510
514
515
513
501
507
501
480
476
482
488
502
504
495
485
493
497
498
519
526
510
491
486
472
470
473
477
492
513
506
497
508
511
503
498
475
483
482
498
539
584
648
721
790
862
897
866
787
721
651
541
422
353
313
256
215
220
257
302
351
392
407
434
469
494
491
488
501
503
498
482
477
472
474
490
502
498
495
494
491
486
511
532
537
534
523
505
501
511
537
537
528
548
533
509
511
518
530
540
548
542
532
545
535
512
500
516
528
543
535
515
514
526
552
556
572
569
558
558
558
579
598
591
569
574
578
569
589
594
576
578
577
587
610
619
618
623
619
610
593
584
593
598
615
628
603
575
578
562
546
536
529
507
490
500
492
483
478
482
481
457
429
413
391
389
398
407
413
413
407
410
397
394
390
394
404
420
425
417
422
399
391
396
410
398
380
387
406
425
437
432
430
434
444
461
459
444
452
473
464
450
445
448
442
443
446
472
473
489
509
514
502
473
439
464
502
479
424
414
442
489
520
525
479
462
472
486
505
515
503
489
488
496
503
490
473
477
503
517
515
520
514
505
493
484
464
493
496
484
491
502
501
501
517
531
525
514
506
524
525
534
538
524
490
467
461
471
494
506
527
550
543
514
507
527
536
533
510
486
474
469
471
483
516
538
550
557
544
521
547
550
527
507
512
525
520
514
507
510
501
502
500
481
496
525
539
538
538
543
554
549
527
514
512
512
522
533
542
538
555
551
539
544
533
539
556
546
535
545
572
593
572
531
504
483
471
456
460
488
489
472
476
488
480
471
484
515
510
512
482
467
468
449
458
483
501
508
496
488
484
481
489
496
499
490
482
476
494
482
503
548
580
633
694
745
816
876
894
847
791
734
621
488
406
331
268
242
234
260
303
346
397
444
476
492
494
503
504
500
509
513
516
519
529
523
518
516
507
524
520
504
507
520
546
550
536
542
547
561
560
536
530
515
507
523
542
539
535
546
555
555
572
565
543
525
532
541
558
562
554
551
553
545
530
524
550
561
560
575
590
595
601
589
589
592
592
586
585
582
586
599
615
612
606
609
611
613
619
623
626
610
601
593
607
626
625
609
593
583
578
573
588
584
552
518
505
500
475
473
467
462
465
471
466
446
411
396
395
394
382
382
384
383
382
410
397
385
413
420
415
410
430
440
431
423
439
454
475
466
443
436
440
441
452
463
474
454
435
439
454
469
467
480
479
443
445
453
470
484
470
473
472
470
463
469
489
510
530
519
500
496
505
503
503
493
489
516
529
505
483
486
483
494
500
487
490
502
509
513
503
487
480
489
485
481
498
503
500
498
504
516
523
530
534
517
498
512
496
480
489
505
496
493
499
519
532
515
497
490
481
480
489
504
494
489
527
555
515
464
467
486
496
510
510
491
500
496
474
475
497
513
521
519
509
504
513
515
517
526
542
539
510
492
487
491
509
530
537
523
502
522
529
516
497
492
512
546
556
554
555
539
541
562
569
546
528
523
525
509
484
466
463
465
468
484
519
513
497
486
485
509
479
447
441
466
497
502
498
492
496
484
452
431
444
462
475
483
478
492
505
504
489
484
526
584
617
658
716
782
835
874
863
806
720
606
489
401
343
304
283
262
263
281
309
332
366
407
449
481
489
483
479
487
488
499
507
508
499
497
519
541
552
548
535
525
518
515
510
513
520
509
500
500
521
546
550
537
543
549
526
500
488
495
535
569
550
527
528
536
544
535
525
535
542
549
542
540
527
520
538
557
560
565
574
578
584
588
583
599
608
606
609
599
597
606
615
608
604
605
612
628
619
614
612
609
600
613
624
601
579
583
595
591
568
542
540
551
542
516
513
517
500
489
482
465
468
455
444
431
407
398
387
372
371
395
419
428
416
419
423
414
412
426
434
412
400
401
408
415
423
434
417
407
407
443
473
471
452
434
451
460
469
467
469
469
474
469
462
451
462
488
479
470
470
463
459
465
473
486
498
490
475
467
476
501
510
501
500
501
484
457
461
494
521
527
508
493
485
496
512
500
476
483
498
488
467
447
470
482
478
496
505
497
483
474
484
498
497
488
478
487
480
495
508
515
517
516
510
498
503
500
499
498
512
515
522
518
520
510
502
514
522
525
527
540
537
525
533
532
531
551
568
569
564
552
514
514
513
478
457
469
493
487
481
483
464
471
479
495
492
478
488
493
482
498
492
465
460
464
486
503
519
523
511
498
487
476
477
495
505
502
499
492
490
508
550
597
663
725
777
804
823
820
780
706
596
459
363
330
292
244
228
247
276
316
365
402
437
466
473
493
513
528
531
500
488
481
482
503
528
544
533
520
521
530
531
548
564
566
548
522
537
561
559
560
560
560
551
536
522
517
512
537
559
559
559
560
574
572
548
532
539
558
554
543
537
530
539
544
569
574
573
571
570
579
575
568
566
594
618
614
609
607
594
614
613
597
608
627
640
625
605
592
608
630
629
616
594
575
585
593
584
560
566
558
546
531
515
500
489
482
488
491
459
436
438
427
406
401
403
418
425
424
433
419
384
370
382
392
390
421
428
411
417
421
420
415
417
430
426
419
423
430
428
439
429
426
426
430
427
427
421
430
448
455
457
465
473
458
461
468
473
467
483
520
516
468
453
458
457
465
492
504
485
471
469
473
500
489
482
473
483
494
514
520
520
505
486
494
481
483
498
499
471
457
455
479
501
515
504
486
496
500
495
494
495
506
517
524
500
481
484
484
474
483
486
496
513
530
533
512
493
492
514
534
542
512
491
496
505
504
512
525
533
531
521
536
559
580
587
594
576
551
547
550
543
528
524
516
505
487
464
463
478
481
488
490
478
468
459
463
479
504
518
509
507
501
490
481
493
507
498
490
486
487
498
513
510
510
488
461
458
470
510
562
610
660
695
739
808
848
854
842
792
710
603
487
409
351
306
275
269
290
325
366
384
382
416
454
486
508
512
519
524
505
503
498
496
486
494
504
509
537
557
552
555
552
530
521
524
522
521
530
519
534
548
540
524
541
556
559
554
562
579
567
543
532
536
539
560
549
551
563
570
569
558
560
549
551
562
554
537
555
595
608
608
592
586
599
594
596
608
623
618
597
601
628
663
671
647
643
652
650
653
639
625
613
616
633
625
621
611
600
580
565
562
550
530
536
543
515
492
486
481
462
484
501
484
462
452
441
434
445
467
474
461
442
435
431
435
438
438
460
459
461
456
425
413
436
454
430
427
450
480
476
477
483
485
480
477
468
486
483
470
457
471
495
507
511
510
497
476
491
525
540
507
498
515
516
507
504
501
484
453
458
490
522
512
495
510
538
540
520
527
528
524
525
532
519
524
535
533
542
555
546
523
497
492
498
500
498
496
500
516
526
526
501
505
530
528
530
542
539
521
516
503
509
540
552
561
557
546
526
517
542
557
558
551
535
537
536
545
543
548
569
585
572
567
560
556
543
518
498
484
501
534
544
513
513
522
521
512
497
491
505
490
471
469
474
497
524
516
522
527
509
499
505
519
525
517
505
510
504
497
502
507
505
482
464
471
501
556
630
691
742
828
896
902
868
798
721
624
495
388
330
304
303
292
297
331
359
387
417
449
464
487
516
543
539
510
510
515
509
486
476
489
501
512
500
494
511
511
508
496
506
520
547
547
534
523
510
494
504
530
537
528
523
538
545
535
541
553
559
561
551
546
543
546
536
533
548
569
548
543
545
563
552
554
561
566
576
573
562
571
575
584
583
589
598
604
611
604
599
607
618
611
612
620
618
614
615
599
600
592
601
619
624
604
587
569
553
537
521
505
508
500
487
482
477
448
429
425
432
431
435
434
434
437
439
437
436
433
407
391
399
408
415
419
413
420
423
424
434
434
436
430
420
434
456
455
453
428
412
416
435
453
456
458
475
484
484
477
485
485
466
469
470
468
457
449
459
467
470
491
490
481
485
476
461
457
473
485
492
480
463
477
499
506
496
483
469
476
491
478
481
497
490
484
488
501
509
489
475
479
468
465
470
497
523
519
515
500
499
501
494
487
494
502
496
509
515
518
525
516
496
485
495
494
482
478
463
458
466
483
525
531
503
504
502
507
524
537
555
548
539
535
555
579
569
530
510
477
459
466
480
493
514
515
490
481
484
472
502
497
471
459
451
452
472
470
460
453
458
465
469
484
482
468
467
471
497
540
552
517
480
462
449
437
442
482
546
600
663
735
774
812
851
860
825
753
662
554
424
339
301
266
233
218
245
299
358
402
440
457
465
463
472
503
512
491
480
484
484
491
500
493
499
510
505
497
489
483
506
523
531
539
527
504
480
479
500
508
516
537
541
539
530
518
516
502
498
527
558
535
524
540
538
531
535
556
562
565
557
513
496
519
528
540
565
574
566
558
549
566
589
600
594
573
575
594
625
623
622
616
604
582
577
595
616
623
605
609
618
615
604
587
587
595
583
562
567
573
543
498
473
472
470
476
479
475
453
431
415
410
410
414
415
408
407
405
419
416
412
409
413
417
435
430
430
430
449
442
442
436
451
446
411
405
431
446
465
470
466
454
445
454
474
461
444
457
447
428
437
448
439
451
455
462
484
489
475
478
478
478
478
471
474
473
467
489
493
493
485
491
501
516
511
478
480
487
497
497
506
497
476
481
493
498
493
505
511
510
475
448
457
478
488
494
485
473
483
512
514
500
481
480
468
458
475
492
498
492
497
507
509
512
530
534
530
527
503
496
509
513
509
512
525
518
514
504
490
475
485
499
515
548
558
545
537
534
544
548
551
546
540
545
560
545
526
487
472
485
488
501
510
512
485
459
467
477
480
493
500
495
502
499
482
473
459
458
487
495
490
492
510
498
477
488
506
520
521
503
505
512
488
469
475
520
582
631
666
711
774
843
882
871
817
751
633
496
396
332
319
296
280
264
273
303
331
366
414
456
470
491
485
477
470
514
528
517
518
544
534
518
518
515
510
491
491
510
514
502
513
529
537
515
513
515
532
526
526
520
528
528
508
517
539
529
526
523
536
550
542
529
526
534
550
547
535
531
561
578
572
574
569
572
595
622
613
581
581
587
581
577
574
569
579
592
596
586
589
613
637
631
623
624
631
628
611
618
613
600
601
603
590
573
590
602
592
560
514
505
515
532
522
483
453
438
440
451
444
425
407
408
421
429
419
409
408
406
421
420
414
415
415
429
431
439
436
423
417
428
426
409
415
440
482
496
482
462
432
429
445
442
431
437
457
470
467
448
448
448
451
474
504
507
483
494
498
481
455
467
499
493
477
478
496
501
485
480
492
498
502
501
512
512
514
496
488
486
490
477
460
468
471
488
493
496
498
515
492
483
482
484
496
509
537
538
521
524
513
513
514
512
517
534
534
512
509
514
521
511
506
506
514
505
487
493
484
491
493
502
514
522
522
515
499
499
513
501
487
488
496
500
513
515
516
510
505
534
538
525
522
518
528
537
547
563
555
538
556
551
535
539
553
553
542
557
542
540
527
508
512
505
491
494
500
492
481
475
501
511
529
520
498
489
488
496
496
495
489
487
497
522
531
503
472
467
475
474
471
472
479
495
494
489
476
476
501
533
592
651
711
765
813
863
884
856
798
725
609
476
370
302
279
278
269
265
277
310
361
407
447
457
472
490
491
478
470
476
477
486
516
526
516
515
515
518
532
547
544
529
509
523
546
542
521
517
538
549
534
540
550
556
552
544
531
504
506
495
503
506
526
563
568
533
515
515
514
531
558
587
588
580
578
577
564
571
586
590
598
596
596
589
589
579
604
607
609
633
642
639
632
623
621
618
612
619
616
622
633
624
620
617
603
595
587
580
590
583
553
548
550
546
522
496
474
460
463
462
468
462
444
444
443
432
433
397
382
393
407
412
427
431
411
395
398
419
436
437
418
414
407
405
387
388
414
433
460
477
473
455
435
434
459
471
469
458
442
442
451
450
457
466
474
512
503
489
496
511
525
524
503
482
458
458
480
489
467
459
474
496
508
502
508
513
510
503
506
506
509
502
496
499
493
498
516
504
492
488
484
490
482
494
499
512
535
539
541
513
476
476
506
501
471
465
471
478
466
472
483
504
530
532
527
523
523
508
513
513
520
522
502
501
513
512
507
490
483
497
518
520
496
488
496
508
513
533
543
534
510
499
489
503
514
513
520
536
551
550
561
542
507
515
524
526
522
536
555
570
569
544
534
525
542
549
542
532
524
529
510
490
476
470
473
492
485
483
500
504
492
482
494
519
520
496
503
498
494
492
502
510
513
481
467
495
502
493
492
497
491
472
479
496
484
500
521
569
637
703
763
809
860
878
840
785
729
641
507
400
322
268
251
256
290
329
364
400
420
430
451
485
497
487
486
496
483
477
498
526
550
575
567
543
523
525
505
473
480
495
501
513
533
544
535
529
538
539
535
530
503
503
516
521
534
561
578
537
516
519
525
530
553
562
554
547
557
566
548
537
536
548
573
599
604
596
569
554
554
559
601
630
614
593
583
601
604
616
620
604
598
599
595
611
618
618
624
632
620
618
624
606
564
548
547
556
558
582
605
585
555
526
520
489
474
469
453
446
439
453
444
430
444
448
435
426
427
421
410
413
415
422
421
428
426
416
413
414
409
392
402
418
448
491
490
468
443
449
439
445
455
461
462
462
461
456
468
474
482
487
485
476
478
484
483
492
487
490
485
474
471
483
497
497
479
470
471
481
495
493
483
474
481
473
482
484
500
513
514
516
507
504
496
490
496
494
490
494
505
514
507
492
477
494
509
523
530
533
525
501
487
483
485
485
495
517
507
494
492
495
509
509
510
522
508
506
495
480
472
486
513
519
522
500
493
507
517
520
525
522
514
493
497
496
487
498
498
517
536
532
518
505
496
497
515
528
528
530
526
507
486
497
516
509
513
532
547
547
505
485
483
460
459
474
493
513
518
541
550
556
547
529
521
508
496
488
507
520
522
530
533
529
541
568
571
563
547
546
556
561
571
582
587
567
520
485
476
485
476
480
492
500
510
517
525
512
475
450
469
505
514
503
508
507
499
513
522
489
475
500
504
482
480
486
511
513
508
495
481
473
486
498
501
511
572
618
655
719
767
829
888
876
813
749
661
535
443
400
330
282
258
260
284
322
334
378
425
437
471
480
480
483
487
472
479
497
506
513
519
511
515
521
514
533
525
514
507
496
494
527
562
571
568
547
521
514
481
491
509
521
534
534
513
486
501
528
520
517
542
551
538
525
534
553
557
565
575
583
557
544
572
608
606
580
565
563
561
558
586
600
608
622
640
642
628
611
604
593
584
598
612
606
599
602
590
590
619
638
635
618
611
613
589
588
562
529
535
527
509
519
511
498
495
486
464
446
443
435
414
405
418
456
455
432
411
404
396
396
426
441
430
404
396
410
425
434
445
448
467
465
447
428
409
416
432
457
465
464
463
448
440
424
415
454
472
467
466
471
478
490
487
482
464
462
486
500
494
485
480
474
479
502
504
493
478
492
498
501
484
453
468
482
470
456
468
483
480
481
472
480
503
491
487
486
490
522
532
512
499
503
508
515
518
522
524
507
499
508
513
512
507
479
481
497
512
523
518
492
471
493
497
496
500
498
511
521
516
498
496
506
517
506
517
526
502
499
520
535
518
510
512
505
508
506
514
523
517
516
514
513
514
521
520
507
514
512
519
514
490
475
487
514
529
536
523
526
510
496
511
513
519
518
529
536
524
519
517
514
505
507
510
514
511
507
511
512
514
503
493
518
536
537
519
509
511
514
524
539
528
522
532
523
514
507
545
568
568
553
498
480
518
566
591
596
580
577
559
546
530
518
533
553
552
513
471
450
465
487
500
508
501
479
467
454
449
464
486
484
475
480
481
495
513
516
509
505
494
497
506
508
502
505
508
504
507
486
469
480
522
572
622
679
761
827
865
880
842
786
720
618
482
384
326
300
296
290
280
285
291
311
372
436
465
477
494
523
536
531
511
496
486
475
478
497
506
510
515
527
542
533
533
548
543
529
517
509
514
520
531
532
533
527
500
484
503
525
544
541
527
519
520
503
511
541
542
540
523
537
550
567
562
555
542
546
570
597
599
582
562
539
543
583
599
611
613
599
595
595
608
612
599
599
605
616
634
625
613
607
606
601
599
600
626
630
597
588
609
594
567
557
554
543
535
525
498
482
474
467
457
463
457
444
428
408
413
429
420
404
406
412
423
437
420
417
419
405
399
414
423
426
415
414
424
430
448
447
435
428
425
423
434
444
439
424
422
423
424
437
446
438
440
446
458
475
471
464
459
457
480
489
487
488
464
443
444
461
474
480
500
520
520
510
489
489
492
482
465
465
472
488
486
479
474
484
479
476
492
516
503
505
494
466
455
463
479
483
494
519
511
486
492
491
494
513
531
525
515
511
499
481
467
471
480
482
488
485
469
452
452
465
489
508
542
543
510
500
484
489
514
523
522
525
509
495
501
515
509
493
474
464
479
493
511
523
526
516
511
511
502
488
497
501
498
496
513
526
520
497
480
476
492
502
532
537
526
528
528
497
464
472
499
528
534
532
503
495
522
516
516
525
518
499
503
505
509
522
523
509
513
524
539
532
535
534
522
517
508
506
517
534
561
567
563
554
552
548
557
564
564
562
577
573
560
554
531
523
505
479
477
488
491
490
494
504
492
496
504
516
528
500
482
492
505
511
495
480
493
510
524
523
499
475
488
536
564
543
522
517
506
509
522
555
601
625
658
710
775
838
889
886
835
724
601
494
399
340
313
294
290
300
342
376
388
427
446
457
474
481
490
499
493
497
507
527
553
552
550
537
521
529
546
551
559
563
545
542
536
521
503
506
527
544
547
536
531
547
562
577
572
554
551
537
550
550
528
544
593
603
573
547
538
560
581
580
590
582
557
558
584
610
615
609
607
592
597
611
591
580
605
630
634
629
626
627
644
663
666
658
654
635
623
655
655
638
622
606
609
602
587
586
592
586
582
576
575
563
535
517
502
489
477
489
504
485
452
438
452
481
473
433
412
411
412
408
413
440
472
473
453
418
410
420
411
416
441
459
458
457
443
433
440
449
441
435
427
428
441
470
484
497
483
460
481
501
511
498
489
472
472
490
510
539
543
504
482
462
444
451
446
460
468
491
513
520
512
509
497
470
459
463
486
512
517
503
494
489
503
534
544
518
499
501
514
528
529
528
534
521
515
523
525
529
530
515
502
510
537
546
522
504
493
486
506
508
472
474
501
512
495
491
489
498
515
527
526
522
527
531
530
532
538
544
522
505
497
495
512
516
524
519
526
525
539
548
528
519
511
514
521
519
510
512
522
520
520
529
554
549
509
499
511
517
533
550
541
533
497
497
487
506
527
532
540
555
556
543
533
546
574
581
563
544
531
519
516
516
514
501
484
457
459
467
481
494
510
526
525
491
477
484
484
475
471
479
478
472
451
444
459
470
494
514
524
539
517
480
455
483
520
543
568
598
648
715
779
822
843
844
796
724
612
476
357
305
279
277
271
275
295
320
333
351
411
472
501
480
464
478
483
489
501
503
499
486
489
496
492
501
524
531
531
523
516
519
504
502
497
504
524
531
527
526
532
545
550
542
540
529
526
534
532
522
503
495
495
516
547
555
535
536
536
542
531
511
526
533
561
578
563
557
558
572
570
559
571
577
573
601
607
610
605
606
630
625
610
602
586
602
622
613
613
616
605
607
577
557
575
581
572
593
600
577
533
490
465
460
466
460
443
453
462
448
435
434
416
411
420
420
410
395
388
380
372
386
399
390
363
356
374
398
420
429
438
421
417
410
411
427
434
443
456
444
429
422
431
435
437
438
449
434
432
423
443
466
467
459
456
443
435
443
450
460
479
480
480
489
487
459
437
431
454
460
453
482
500
484
476
472
497
501
505
514
514
499
469
448
450
463
477
479
477
496
502
501
494
501
495
490
496
502
506
506
469
471
487
505
490
469
468
476
481
475
478
512
522
510
491
480
496
513
506
495
507
505
509
515
499
506
517
518
535
531
505
482
487
482
474
483
493
510
530
523
515
531
548
557
542
516
495
486
487
503
525
552
573
569
533
512
525
552
556
540
524
510
489
474
480
499
488
471
456
454
461
474
484
491
458
457
455
468
496
485
474
471
497
510
497
495
500
502
523
542
517
484
459
447
470
513
559
612
685
741
782
813
834
822
769
699
596
509
423
351
300
264
244
258
292
325
392
433
432
437
469
497
496
510
511
510
522
541
535
534
517
512
516
535
541
540
518
520
545
547
537
535
533
524
533
560
559
548
563
569
558
547
536
522
550
589
597
581
540
540
543
548
537
524
510
521
556
588
587
593
615
615
614
612
584
565
549
548
574
609
612
603
602
612
620
633
654
665
672
670
675
678
655
632
618
626
644
631
625
618
608
591
594
615
611
591
584
572
552
541
543
529
505
496
496
493
488
481
466
447
440
445
442
453
454
457
450
427
417
417
404
397
400
445
492
475
440
430
408
403
419
436
434
437
445
461
476
464
452
455
462
467
459
461
459
494
510
512
501
485
476
482
475
470
473
483
490
494
503
513
514
507
514
496
483
499
504
498
491
484
489
502
505
513
533
524
517
503
500
489
492
486
491
508
513
505
500
491
489
496
494
492
490
497
498
501
517
522
520
521
548
549
540
515
498
510
506
511
521
511
496
470
482
491
519
542
517
498
499
504
509
515
507
488
509
528
531
521
526
536
543
537
535
536
564
570
560
555
584
586
569
565
567
578
578
565
541
504
486
482
495
496
482
465
453
446
470
481
480
493
494
470
462
471
487
504
501
490
495
512
509
497
519
531
517
500
499
517
525
499
498
508
485
467
472
520
603
662
703
737
791
831
842
799
730
660
564
446
379
330
278
257
276
306
320
348
401
433
454
497
521
525
501
493
491
489
495
482
488
516
508
482
494
511
522
523
510
508
498
492
501
524
507
482
489
522
525
512
517
528
510
514
509
503
516
535
558
562
550
545
564
569
560
565
575
567
549
532
517
512
526
544
542
540
547
565
575
576
580
564
569
600
600
562
571
584
591
599
619
640
637
630
625
611
602
599
634
661
644
604
614
626
616
594
583
570
538
519
497
483
485
490
490
496
492
459
423
410
430
451
458
433
423
425
408
407
403
421
437
435
419
419
445
452
443
424
416
418
407
403
416
443
452
445
448
448
454
452
460
466
461
475
492
468
470
497
507
509
499
479
459
456
469
473
482
490
499
505
495
489
519
526
503
477
482
467
461
481
483
503
516
487
488
504
501
476
474
487
505
517
503
530
550
539
526
530
532
515
508
511
502
503
521
535
522
498
477
468
481
500
526
526
517
508
482
483
496
521
502
499
513
516
522
548
532
500
488
481
492
503
516
526
553
573
571
532
518
520
505
510
543
574
556
537
533
538
535
517
515
526
519
520
543
589
583
558
559
547
520
493
492
478
468
475
478
487
480
473
473
478
484
487
484
486
497
508
510
482
450
460
488
496
509
514
526
522
495
493
504
500
480
465
461
462
476
496
509
563
632
687
747
801
858
872
831
772
681
570
460
383
339
311
283
258
265
288
322
356
397
451
493
502
485
490
485
472
472
469
500
528
527
514
496
479
487
499
518
519
486
483
499
504
497
505
500
494
494
506
525
535
531
520
520
506
505
492
491
496
495
525
539
542
543
544
540
542
561
554
553
546
531
548
546
537
529
523
521
526
551
561
567
582
583
589
587
587
576
576
584
586
607
621
639
650
629
607
610
596
582
586
591
590
585
585
586
589
568
547
533
520
518
523
504
489
479
467
437
437
432
401
398
398
417
412
405
426
441
414
381
403
411
414
403
426
440
420
416
422
413
409
402
432
441
428
420
440
459
455
449
449
441
438
437
438
444
450
457
460
469
460
456
471
475
465
460
457
466
484
495
491
495
493
492
475
475
492
492
485
494
486
476
485
485
488
483
459
453
473
494
503
504
513
502
474
438
437
465
483
486
498
504
514
523
516
519
520
490
482
472
458
469
501
517
514
527
535
522
497
477
469
458
470
496
517
527
529
513
495
481
477
467
472
519
529
520
516
507
495
511
527
518
500
494
520
539
549
555
545
536
527
525
536
536
543
540
548
548
536
510
476
456
454
450
465
486
486
482
492
510
510
491
463
446
444
453
464
476
483
483
471
454
457
464
463
485
503
507
505
491
468
459
455
452
476
501
523
542
561
594
660
734
807
826
841
850
798
712
596
473
371
304
261
247
258
286
325
352
373
403
423
434
437
450
453
448
454
454
462
493
503
493
484
479
491
500
505
497
480
466
463
479
504
517
529
530
514
506
520
504
522
555
553
538
522
497
489
492
496
511
505
503
494
499
512
514
515
518
543
560
567
554
528
531
557
570
565
560
571
586
563
556
553
554
577
579
582
587
588
597
601
620
613
623
630
613
609
603
599
589
594
594
586
571
579
568
552
556
561
553
537
526
512
473
466
473
474
464
428
402
415
416
398
403
409
398
392
405
421
416
409
410
405
408
402
404
411
412
427
412
383
402
430
451
455
456
448
427
420
425
417
436
456
446
439
456
463
461
457
462
446
438
464
475
478
480
453
436
430
462
481
490
473
455
480
505
497
467
469
460
476
495
488
456
463
475
483
472
473
478
468
469
482
478
484
505
495
474
451
454
475
497
518
516
500
501
512
517
508
510
488
464
477
498
484
483
486
479
476
480
497
518
514
497
485
498
512
501
498
489
482
501
505
508
509
499
495
510
522
509
519
517
515
506
512
519
517
494
486
504
508
508
523
532
535
529
507
504
529
554
576
578
565
549
549
545
538
522
492
475
457
462
489
495
473
484
475
465
486
488
480
471
482
505
495
492
483
462
457
458
466
477
477
478
466
490
519
508
509
503
479
455
432
444
468
520
575
632
695
752
818
855
862
835
793
739
662
541
416
320
286
276
277
299
336
348
357
377
418
447
477
497
486
497
482
463
463
466
487
502
500
501
515
510
485
483
505
512
501
497
501
507
506
525
542
535
519
504
502
535
531
512
505
520
526
544
545
536
531
524
524
540
559
563
533
536
558
567
564
549
548
565
557
558
551
544
558
588
604
610
604
575
556
564
593
608
634
629
614
634
627
638
644
639
627
620
621
614
614
616
613
616
619
597
577
564
561
571
550
534
521
496
493
520
493
441
422
431
435
440
456
456
442
415
404
386
372
371
407
429
409
410
424
414
396
411
443
456
444
444
449
449
446
437
433
437
446
452
459
460
453
446
444
451
463
463
491
497
501
493
467
456
448
460
478
494
492
489
484
484
507
496
468
461
453
476
469
447
456
469
471
481
492
485
476
498
528
525
507
497
493
468
461
476
506
535
527
515
506
504
502
515
538
545
546
517
499
492
496
492
486
498
513
498
486
481
480
490
501
519
535
548
545
540
520
511
509
525
520
501
495
504
523
534
526
541
581
600
581
552
549
530
523
525
520
500
501
540
571
579
568
540
501
494
503
501
506
509
502
490
496
500
493
486
470
448
453
469
477
509
526
511
506
505
495
488
487
508
528
538
529
504
486
501
524
517
501
481
466
459
477
509
550
601
659
726
787
821
834
814
762
670
528
398
325
318
318
323
323
330
370
411
432
454
452
468
483
480
468
467
477
486
503
520
519
519
516
494
479
494
505
512
519
508
483
501
519
547
601
615
583
560
535
520
520
528
557
578
564
565
551
537
545
533
514
520
534
529
533
522
537
550
559
557
552
553
565
572
581
570
573
594
614
611
603
610
618
588
593
615
634
653
658
625
625
640
632
632
613
569
588
636
649
637
619
618
624
610
599
569
539
545
561
568
550
522
494
492
504
492
469
473
464
440
429
416
404
419
430
420
421
406
410
416
432
435
416
404
445
455
416
381
386
406
447
459
445
432
436
435
453
472
453
459
464
455
448
457
467
472
470
475
485
476
479
472
476
490
493
465
449
440
444
468
498
536
523
495
502
509
525
516
501
485
473
475
471
496
517
518
494
501
508
508
514
506
502
513
523
526
536
524
506
518
527
532
507
494
516
527
504
506
522
523
501
488
489
500
517
502
511
535
518
505
504
523
529
528
503
482
502
539
552
541
540
541
535
522
508
504
526
542
535
536
533
548
562
562
550
545
537
536
543
557
569
573
554
531
522
525
539
549
534
508
492
515
532
516
487
485
481
488
502
525
522
496
476
477
495
503
480
475
483
503
525
518
480
484
492
502
515
529
517
508
483
484
482
488
514
550
585
641
696
733
765
804
824
800
707
620
548
464
377
332
321
329
334
336
359
384
403
393
410
461
500
512
507
508
513
521
530
529
541
532
529
494
486
515
537
541
538
543
552
548
531
514
518
536
540
553
544
521
513
503
506
524
555
559
540
552
561
550
552
566
582
583
570
553
558
569
554
516
520
556
571
577
583
582
568
542
545
557
572
613
645
654
626
597
613
629
609
595
608
620
635
619
592
604
618
611
604
605
633
655
645
626
584
581
606
630
603
556
522
485
480
480
481
478
457
431
437
443
441
428
411
433
452
462
447
411
420
445
439
426
417
416
412
416
413
394
395
420
449
466
469
451
440
450
455
469
470
455
444
446
463
488
492
468
461
457
460
478
494
491
476
477
481
492
500
484
466
481
481
480
504
519
501
479
481
497
519
523
492
499
507
504
490
493
497
510
538
531
506
509
528
522
505
500
487
493
499
528
559
550
530
521
502
492
500
512
501
502
500
530
534
530
518
520
520
519
515
507
526
522
492
478
503
526
527
527
538
535
531
529
505
500
510
519
523
541
557
564
569
565
554
530
543
573
576
545
507
499
537
573
562
552
541
533
544
550
542
538
516
486
484
483
499
506
503
512
515
532
527
507
491
490
489
491
502
513
492
482
482
504
519
505
499
519
525
515
498
507
526
531
513
501
525
575
613
651
715
780
823
819
795
765
705
625
531
453
406
377
342
329
332
329
347
387
412
426
459
475
489
508
507
506
516
517
531
544
545
525
531
549
558
567
567
548
539
532
517
533
561
578
596
561
516
510
519
531
557
565
556
537
526
542
546
550
553
553
553
541
538
546
562
589
574
553
565
564
556
567
597
602
595
587
605
604
585
593
599
625
654
638
610
603
626
618
582
586
631
647
639
627
624
617
602
589
604
638
645
652
658
628
595
593
579
565
573
566
530
520
508
503
503
503
496
483
455
431
419
414
404
406
439
482
496
451
413
400
401
406
425
430
415
410
433
444
461
437
421
421
413
422
438
445
444
452
493
500
477
442
445
470
476
470
472
476
466
466
477
494
494
486
475
472
490
502
507
491
484
468
470
468
480
493
484
477
478
486
465
474
481
481
489
488
500
493
484
499
516
532
524
508
514
513
511
498
493
495
501
510
509
508
498
497
502
500
488
490
492
484
479
464
462
502
534
495
460
503
508
495
497
487
486
501
522
524
524
489
491
495
489
509
521
527
517
497
492
505
499
489
518
533
529
511
487
486
504
544
569
567
547
522
498
502
509
514
532
524
495
469
474
480
469
450
468
490
484
481
486
483
461
454
454
462
475
490
483
476
485
494
483
458
467
482
471
472
460
464
466
474
476
456
434
440
473
536
580
619
661
716
788
826
832
771
712
641
536
444
390
357
327
298
281
297
315
345
359
366
397
436
454
451
436
450
467
483
485
463
473
487
479
473
490
512
490
468
460
470
461
473
493
516
513
513
514
502
508
511
497
493
487
500
521
519
500
494
495
507
511
500
491
505
520
521
506
498
491
512
544
553
528
505
538
545
521
506
510
527
536
546
573
584
576
573
581
569
565
563
562
571
580
579
585
591
584
564
565
575
586
607
610
598
584
574
554
520
509
512
497
475
454
437
452
476
497
498
447
389
358
366
378
384
395
423
440
440
412
382
382
397
391
408
428
431
422
408
403
415
412
416
442
467
447
422
415
414
412
409
423
458
480
469
454
452
462
459
444
430
425
431
460
462
461
468
469
473
468
461
467
498
498
490
490
478
492
488
492
489
484
477
474
478
484
499
511
497
500
503
491
492
488
490
496
495
479
485
497
493
495
490
493
489
491
494
502
510
493
492
484
493
500
521
533
525
508
508
517
528
502
495
495
489
484
495
517
509
502
519
538
521
505
520
514
513
514
511
515
515
506
502
496
496
497
514
537
516
507
503
507
513
522
531
527
505
503
518
515
496
521
535
541
564
586
575
547
567
571
569
573
571
574
564
549
527
535
521
522
542
529
501
476
467
489
520
516
495
493
487
474
483
514
531
510
489
464
456
470
482
495
509
509
501
499
540
548
535
524
533
528
498
500
501
502
523
562
626
667
682
735
815
862
848
805
760
687
591
501
428
377
335
311
303
306
333
383
416
453
483
505
507
490
483
478
504
522
510
514
532
530
519
502
502
502
499
513
529
544
547
531
531
533
532
498
496
524
533
536
524
528
534
533
529
543
533
535
555
570
566
549
541
548
546
553
568
575
586
556
546
563
568
564
559
553
553
552
552
579
575
566
579
589
587
588
601
613
628
666
669
620
611
612
608
619
633
630
629
627
618
622
625
609
604
593
586
578
566
551
538
550
550
527
492
456
441
453
468
457
444
427
424
428
454
477
460
450
448
446
451
462
472
471
457
451
436
423
422
438
454
471
470
488
504
504
470
452
462
473
462
462
489
485
471
469
463
464
442
443
466
468
444
445
459
491
533
547
534
518
496
494
506
499
498
516
493
477
500
517
504
489
490
488
513
516
508
491
474
489
519
531
520
458
425
450
496
522
508
493
476
484
505
522
522
536
545
536
517
504
518
515
520
548
538
533
520
503
502
526
522
520
522
526
512
490
487
492
506
518
530
532
511
505
509
515
510
486
489
516
525
520
527
521
496
473
488
506
501
509
520
533
525
538
544
546
565
560
522
501
500
496
499
490
512
536
542
528
530
530
536
550
527
513
521
518
497
479
517
535
513
505
493
513
543
583
585
561
543
547
555
561
577
587
601
585
559
539
506
479
463
462
488
492
476
476
477
471
477
488
493
492
486
491
493
499
508
507
494
477
471
490
485
482
499
514
516
501
499
519
496
471
470
481
501
543
596
642
683
743
794
834
862
839
787
732
618
444
340
296
293
293
326
314
306
331
385
414
427
456
493
518
508
507
513
524
527
518
523
542
526
515
515
516
497
489
499
494
485
495
516
522
534
563
539
509
518
530
523
523
539
550
538
515
489
477
505
548
555
564
554
549
546
542
549
561
565
556
560
569
573
550
530
525
541
559
571
581
581
580
597
599
593
596
588
612
640
618
601
623
653
638
610
607
632
625
613
602
614
640
631
636
609
585
574
579
580
567
554
519
508
520
520
516
486
471
452
417
415
451
451
436
437
425
424
444
443
402
375
383
374
379
401
428
439
448
453
449
438
439
427
409
412
415
444
454
446
440
460
462
452
453
452
455
475
482
476
466
459
481
466
436
448
482
519
515
489
488
476
450
444
455
460
474
484
468
445
459
476
461
444
449
467
499
500
488
501
512
513
511
510
514
517
523
533
523
506
480
455
464
483
500
520
525
534
548
510
478
475
463
461
470
468
476
486
486
513
535
542
518
486
471
463
473
488
494
500
515
520
515
511
504
488
479
492
525
534
521
533
553
547
534
523
491
479
499
497
459
461
479
496
536
555
537
506
493
497
509
509
505
507
506
491
487
488
487
507
519
513
515
541
540
501
495
519
559
595
599
538
499
501
515
531
545
556
547
558
571
591
587
562
553
556
532
481
453
452
460
475
470
483
486
487
504
505
496
477
471
464
486
497
490
486
493
480
456
460
485
488
491
480
473
469
471
480
486
473
493
534
569
617
676
734
824
893
920
911
848
782
702
558
424
342
290
244
219
237
285
337
344
337
364
409
433
429
429
447
476
484
483
489
527
543
531
506
500
516
527
525
528
533
515
487
505
547
567
550
522
519
525
519
506
512
520
538
539
533
532
525
514
523
507
487
500
529
544
516
516
538
552
571
564
586
570
554
543
546
580
580
595
621
609
597
587
582
593
604
611
627
629
618
609
620
623
619
637
627
631
635
641
632
609
585
604
633
648
621
595
590
574
562
563
546
523
519
521
509
493
476
472
464
454
441
410
398
396
390
387
387
403
397
399
408
415
424
426
398
369
373
385
394
404
427
426
408
406
420
445
467
471
472
470
464
452
448
447
450
464
476
455
449
456
456
454
445
448
463
455
451
476
493
481
465
446
439
428
440
459
481
497
501
517
527
548
540
512
483
468
480
513
531
535
520
510
497
478
480
486
490
495
509
515
509
507
486
478
513
512
480
468
479
463
480
513
509
497
492
492
517
534
530
535
545
524
507
501
489
491
500
490
472
486
516
530
526
533
530
519
523
527
530
533
507
479
479
486
495
508
522
536
533
509
513
530
522
505
529
523
480
480
517
534
538
561
567
535
504
486
476
486
510
533
544
558
558
552
553
559
543
555
571
575
581
566
517
486
504
527
537
523
519
501
484
486
481
464
478
495
517
511
493
488
485
489
487
484
489
485
483
468
478
502
516
518
505
497
491
499
517
521
490
463
473
506
557
610
674
744
829
870
885
866
824
764
685
560
438
346
272
224
202
211
225
280
352
393
423
455
472
461
460
486
504
525
532
525
543
554
532
493
482
488
486
498
508
488
497
519
542
541
519
504
505
524
548
535
509
514
552
538
526
534
554
554
551
554
548
545
540
542
564
571
574
571
557
550
556
559
556
537
533
553
558
565
553
547
571
607
615
598
581
606
621
623
630
645
643
603
606
631
641
640
633
631
631
637
646
629
624
601
581
576
584
585
583
559
534
531
530
512
508
507
486
472
463
450
434
431
444
437
410
395
384
368
363
380
379
382
403
424
431
444
445
423
423
431
420
424
424
410
418
416
407
408
415
415
415
413
428
435
444
450
453
450
455
461
468
478
473
470
481
486
472
471
478
474
475
460
444
445
474
475
499
509
494
485
488
505
482
460
470
482
495
507
498
476
475
480
490
493
481
481
491
486
478
487
477
494
506
490
480
474
465
473
487
528
556
540
527
503
484
481
488
490
497
499
477
459
482
509
519
536
526
517
501
493
498
500
490
473
486
503
499
492
466
450
483
521
538
540
533
501
498
519
525
527
554
562
545
526
496
481
491
501
518
531
558
575
547
535
526
549
562
555
553
543
552
569
553
531
534
528
510
491
482
477
466
491
494
475
468
472
488
498
513
527
508
494
501
513
525
522
509
508
503
479
471
481
496
492
473
454
471
488
484
478
495
505
536
588
650
710
773
849
895
901
849
767
681
576
471
373
287
226
199
211
247
282
321
376
420
444
479
502
522
498
496
506
520
515
497
489
490
509
504
518
528
529
537
536
543
529
510
505
496
519
518
510
522
545
545
541
536
548
543
544
566
561
540
527
546
559
567
579
572
554
558
558
570
576
579
575
589
588
562
536
536
549
546
564
592
586
597
617
602
603
615
621
623
635
638
633
627
632
646
645
634
619
613
605
613
635
646
652
645
652
640
615
576
567
571
562
526
476
467
471
492
494
494
485
453
428
413
380
386
413
421
414
404
410
416
391
385
411
425
419
413
395
394
408
422
426
418
419
440
430
402
404
428
449
461
468
464
461
448
446
465
478
467
455
451
461
460
452
454
459
460
447
453
478
500
499
476
460
456
480
489
489
480
460
469
490
504
495
483
488
496
509
522
512
505
497
479
483
491
522
525
527
536
529
501
501
501
461
444
465
493
523
538
533
533
499
473
486
508
523
527
527
521
514
503
496
488
493
493
487
503
512
529
534
545
548
545
530
513
504
506
509
513
529
545
543
512
495
471
494
524
526
531
556
562
542
544
545
543
567
575
567
557
531
522
531
513
500
502
500
490
491
508
514
513
513
504
496
483
480
487
495
488
484
481
476
492
498
507
512
509
495
482
493
498
502
497
480
478
485
479
478
495
515
546
597
669
730
784
831
874
901
866
789
691
557
425
332
299
257
241
247
266
303
352
396
440
479
488
488
490
503
507
505
493
497
519
534
552
556
528
501
491
489
491
484
508
526
533
532
543
559
553
533
524
529
544
570
573
559
554
543
534
545
561
567
562
558
532
533
552
568
566
563
555
556
553
553
568
588
591
576
579
587
585
589
604
614
616
599
590
610
610
626
626
621
621
610
597
581
603
637
661
659
648
652
645
631
625
621
608
590
586
609
593
569
550
543
561
551
535
510
488
470
460
460
456
438
430
420
421
421
419
418
428
445
444
433
444
453
432
424
431
423
433
462
448
445
462
435
395
403
417
439
457
461
469
478
458
433
436
451
460
475
475
466
472
482
489
484
486
488
477
466
483
503
495
496
479
457
475
493
483
493
515
523
519
516
504
489
488
497
500
499
488
473
464
478
500
523
521
509
512
514
517
518
515
509
527
540
507
458
437
456
474
488
472
474
473
489
511
516
531
546
531
530
532
526
522
527
507
479
484
487
478
491
517
536
554
573
567
563
551
554
560
557
559
543
523
500
484
492
478
495
512
500
465
457
473
495
497
467
452
471
490
485
485
484
475
460
466
502
514
505
516
522
491
457
466
466
460
470
480
481
481
470
476
512
567
634
693
706
748
804
846
842
780
712
617
486
374
330
303
292
283
289
309
314
358
412
439
451
468
495
500
495
494
498
495
508
500
496
488
486
497
503
495
494
497
482
481
494
514
519
527
547
538
500
518
533
519
521
529
518
523
544
546
527
529
522
506
509
508
497
511
539
552
543
549
549
544
568
576
562
566
578
562
543
570
573
554
551
538
550
584
601
585
588
587
585
587
589
618
650
659
653
625
607
575
559
564
571
592
612
607
583
571
570
567
551
526
495
489
476
481
489
471
449
420
413
406
416
429
423
410
431
439
413
403
386
383
401
396
399
410
417
400
394
402
420
434
452
443
430
423
419
414
407
399
405
439
457
447
458
466
452
461
459
456
459
476
493
482
483
478
481
462
448
459
455
445
460
477
509
532
487
458
462
461
453
451
459
484
503
489
464
462
479
507
507
487
477
484
491
497
490
489
477
470
471
475
482
487
508
526
522
518
508
506
549
539
535
531
540
528
514
519
531
544
546
550
530
516
506
489
475
466
480
493
501
490
460
462
458
451
468
486
489
505
502
483
482
474
465
468
465
459
471
487
494
490
488
490
477
476
475
481
475
465
462
466
486
538
595
636
677
722
758
796
815
812
762
686
578
456
370
321
276
276
294
327
355
351
362
388
409
453
459
453
462
469
480
496
505
501
495
509
515
514
525
519
500
501
495
501
514
516
524
524
536
541
549
537
517
515
506
507
536
536
511
502
498
513
537
541
536
541
543
530
537
558
558
548
544
537
547
560
554
533
534
556
579
570
556
548
568
587
593
602
591
594
597
600
612
624
623
615
616
611
597
586
590
595
596
610
631
632
621
609
604
586
554
533
521
514
510
518
510
508
502
466
438
446
454
429
421
414
403
404
404
408
425
432
420
419
424
416
418
414
386
393
400
416
435
454
444
439
424
435
446
442
453
470
478
473
472
462
454
449
462
461
450
458
470
460
437
448
463
461
475
512
520
510
480
450
453
476
505
514
510
508
508
493
489
475
474
504
507
504
507
497
483
493
516
533
537
537
517
486
480
476
465
477
475
497
511
529
527
524
541
547
551
548
553
566
569
566
557
524
506
489
476
481
477
476
487
489
493
487
473
475
486
495
488
474
484
478
453
446
447
463
478
470
468
504
543
537
503
506
490
474
461
453
460
483
491
510
540
569
615
655
690
759
815
818
788
726
644
565
440
370
348
342
327
318
327
342
362
373
390
405
433
468
496
505
493
497
499
503
513
519
520
517
526
517
509
515
517
515
514
515
529
545
535
510
510
521
525
517
541
560
567
582
593
567
540
537
529
515
505
527
546
538
531
538
538
544
553
561
564
572
590
598
587
579
575
579
584
589
586
582
584
588
593
590
595
606
619
618
606
598
611
637
651
647
642
635
602
571
540
568
588
592
551
544
576
580
568
561
560
546
547
526
501
483
474
472
463
451
444
443
439
424
428
441
442
434
419
407
414
438
452
443
444
429
410
440
484
498
483
412
376
401
430
440
428
424
417
417
443
453
464
473
476
476
482
485
484
494
484
484
486
489
487
489
494
518
524
520
509
498
488
489
507
497
499
514
531
515
492
489
510
534
534
542
542
518
515
537
541
525
525
512
516
525
495
493
504
514
531
551
558
556
559
565
571
555
519
512
516
505
487
476
493
495
500
503
516
517
504
483
487
488
491
504
501
496
500
518
526
539
531
509
505
494
505
512
517
499
471
461
458
476
475
483
478
496
554
610
646
695
752
812
863
859
814
749
665
547
444
395
359
347
347
324
308
325
358
418
436
476
495
483
473
473
474
491
498
488
499
505
514
526
542
554
537
514
513
510
512
523
533
533
531
527
528
536
542
553
568
566
563
552
535
535
521
524
539
556
575
583
573
567
549
530
511
518
536
544
558
552
547
552
572
604
613
593
571
568
572
582
587
599
618
615
625
618
606
614
618
626
641
637
630
633
633
622
646
663
632
587
580
573
558
526
530
539
540
538
523
515
502
489
484
473
457
454
453
440
440
452
445
432
441
452
452
440
421
419
410
415
431
427
431
454
457
442
449
447
440
422
432
459
462
442
442
452
480
475
466
469
456
446
459
469
478
478
482
473
467
461
467
481
487
495
498
509
484
468
463
490
496
468
447
473
496
515
519
513
493
505
520
509
499
518
541
534
533
537
512
492
483
484
493
521
534
512
495
487
511
523
526
543
552
563
567
546
519
518
510
490
493
497
499
485
454
456
483
501
510
511
482
478
495
483
476
490
507
497
461
459
479
466
462
468
475
491
530
534
503
474
469
487
489
467
478
460
472
494
527
589
653
706
769
825
847
838
812
740
630
531
447
391
349
324
316
332
370
378
371
382
397
438
462
459
462
466
485
471
463
469
448
439
483
498
494
497
477
483
519
526
512
497
484
487
502
505
503
505
507
489
493
500
496
505
496
499
530
543
512
498
507
516
499
502
518
515
507
504
518
521
536
569
581
560
547
532
538
538
539
551
550
536
568
571
552
564
557
572
575
592
589
567
557
562
575
589
592
600
604
594
592
591
587
577
558
532
527
524
537
542
528
513
496
472
430
411
411
408
411
432
424
415
423
416
410
407
414
422
434
427
402
412
417
421
440
432
409
400
412
419
436
455
466
468
469
459
451
465
461
450
447
458
448
446
467
477
453
453
469
469
468
472
471
472
475
457
456
472
476
470
468
454
451
464
478
484
495
508
499
486
490
504
513
520
525
517
508
527
503
467
464
466
469
470
500
524
524
541
552
559
548
506
485
494
507
529
530
521
512
504
494
493
505
513
516
504
493
480
483
490
479
456
459
469
463
460
478
491
488
497
517
517
505
492
481
475
498
526
518
508
486
483
500
493
487
473
465
473
493
518
564
627
690
748
804
841
855
848
800
725
596
484
423
374
346
333
345
343
342
364
395
414
434
473
474
470
483
505
513
518
526
531
516
511
517
517
518
520
520
520
506
499
500
521
544
551
535
528
520
498
495
519
521
501
513
537
535
528
543
536
529
525
520
535
557
550
553
563
551
539
562
590
595
580
576
575
572
596
589
567
560
574
606
616
614
614
602
603
594
591
611
601
584
592
590
583
599
615
622
635
647
657
650
652
633
588
572
584
571
546
523
520
518
530
529
527
533
505
493
484
472
453
443
460
470
458
452
445
457
487
492
453
412
412
417
425
433
448
464
450
447
464
468
461
478
479
480
482
480
500
512
503
492
483
487
482
482
494
508
512
487
454
462
526
549
533
494
475
468
463
486
490
474
473
484
494
498
505
507
515
530
543
544
534
512
518
524
495
464
469
507
543
554
535
518
515
508
524
532
551
542
509
497
528
544
511
491
524
552
556
548
544
551
565
586
585
574
589
602
602
585
575
576
536
497
481
465
462
480
493
486
506
520
508
508
497
509
523
531
529
526
531
502
488
490
490
484
503
515
528
530
528
520
502
496
512
520
509
485
465
463
492
538
593
650
693
753
839
889
896
862
819
752
638
512
422
362
313
282
304
336
342
359
401
426
449
471
481
474
482
502
498
496
501
494
497
497
498
488
502
506
498
495
509
527
524
513
514
531
527
529
541
539
515
517
538
549
547
531
504
497
513
543
555
533
534
571
584
574
558
532
516
531
545
537
531
522
537
568
571
566
555
552
557
549
549
562
574
588
596
604
637
659
645
611
580
575
593
607
611
617
610
615
625
633
618
604
608
597
591
571
539
520
498
515
534
553
517
485
468
470
469
433
411
420
420
410
407
417
428
433
428
426
427
425
427
417
430
448
442
441
443
454
438
405
399
423
449
460
474
467
453
441
453
468
476
469
470
466
448
449
461
449
448
473
474
458
451
479
491
486
483
483
478
489
480
468
470
468
472
483
498
497
457
455
466
486
499
506
523
535
520
486
462
465
484
497
519
516
482
484
489
477
466
482
495
498
491
466
457
474
499
522
511
499
490
475
480
516
521
503
493
481
475
490
515
509
491
491
500
494
481
481
502
508
490
469
474
488
518
549
521
488
485
498
509
513
502
511
520
535
527
507
499
501
497
483
498
533
544
536
510
508
537
558
559
549
557
559
551
525
511
516
515
509
496
461
447
440
438
473
500
495
491
480
472
494
481
483
487
480
463
454
478
499
495
502
510
492
466
451
430
437
478
506
512
528
506
482
487
494
533
593
646
695
759
829
850
847
812
764
685
574
477
388
308
236
209
230
267
316
345
388
457
478
476
480
467
452
480
494
497
502
493
495
495
512
525
517
504
487
489
492
519
542
539
535
518
506
505
500
500
516
521
532
516
493
485
492
514
521
510
504
536
573
569
530
521
542
545
539
529
531
547
568
576
587
573
562
556
554
571
565
562
572
589
579
588
598
595
588
610
622
603
595
601
620
602
590
600
610
617
623
617
612
612
615
606
587
577
576
568
560
561
548
528
505
479
468
463
457
450
426
405
403
419
426
425
421
420
416
420
432
416
390
388
403
408
439
465
463
440
416
411
408
417
438
450
428
404
417
424
428
424
450
475
491
463
459
479
483
481
459
461
480
486
479
471
473
479
491
500
480
464
468
478
470
464
476
481
470
457
465
468
459
468
472
474
473
482
485
501
510
503
483
470
475
466
474
495
501
503
493
489
502
503
503
506
501
498
519
532
514
505
474
453
466
489
504
521
527
508
494
487
468
483
515
516
494
476
486
498
507
519
513
497
516
530
514
507
508
517
502
472
475
492
507
513
525
523
512
502
506
519
522
498
478
480
517
548
554
528
488
468
459
457
474
481
496
523
511
496
485
480
488
518
539
518
484
489
498
505
525
544
556
540
507
519
519
516
522
530
521
509
511
505
513
529
529
512
501
520
534
524
533
523
526
541
536
535
547
569
568
553
545
559
569
554
519
495
501
515
509
491
491
498
492
479
485
496
523
520
488
434
440
464
496
492
484
497
504
506
509
494
495
504
498
495
497
484
465
485
500
490
474
473
478
500
543
579
620
682
739
797
857
888
865
792
714
622
502
416
342
305
315
298
287
317
362
396
412
447
473
476
482
488
494
483
477
478
484
494
494
484
480
471
492
513
535
530
517
517
517
510
526
508
484
487
499
515
522
527
541
549
537
514
509
521
529
536
517
510
526
531
518
529
538
556
566
547
552
555
560
579
595
600
575
554
547
557
556
563
560
570
584
569
576
603
623
622
620
607
612
628
636
641
633
618
615
607
591
590
583
581
593
605
603
600
586
580
561
543
526
510
503
514
527
530
490
429
408
406
419
450
455
432
424
396
408
439
442
448
440
433
446
441
418
414
417
426
436
450
454
427
395
392
413
444
447
450
458
461
447
447
457
467
463
469
463
461
464
470
472
486
504
501
480
467
486
487
478
469
479
491
488
487
479
481
473
485
471
485
478
458
480
508
523
499
501
499
491
492
514
536
530
529
516
492
484
480
477
482
496
494
489
494
488
480
500
525
519
517
531
520
498
493
506
491
475
485
507
506
491
475
483
500
515
521
520
522
524
502
492
492
499
514
512
500
514
497
487
501
542
553
535
536
510
484
487
501
514
526
541
542
516
485
480
505
497
492
498
499
502
498
501
515
522
532
512
508
517
505
498
508
502
481
477
496
518
528
528
518
516
533
554
553
540
527
521
528
536
555
559
547
550
545
536
535
556
582
590
580
575
544
515
516
520
494
484
491
503
505
491
474
467
472
474
488
492
491
508
502
498
503
513
504
497
497
500
494
483
480
468
482
490
512
527
524
519
519
509
499
489
491
523
597
647
691
733
777
828
851
847
784
708
618
490
404
347
298
258
267
309
363
391
390
401
428
463
475
468
464
482
499
495
477
474
479
494
508
510
522
522
513
521
540
544
528
518
527
508
513
527
542
545
537
537
534
512
522
512
514
530
528
543
538
532
522
519
530
534
530
523
528
522
528
550
571
589
595
591
571
555
555
578
586
562
542
545
582
615
631
617
620
631
611
603
617
612
606
593
595
620
643
657
639
617
592
590
589
593
588
591
597
586
568
527
515
526
525
507
486
463
438
427
429
433
439
433
422
428
396
372
409
454
477
478
480
466
440
427
399
396
408
403
392
397
422
449
444
427
411
431
461
456
448
447
438
443
449
443
450
459
462
450
445
462
476
466
449
449
459
475
481
496
519
536
523
492
473
476
509
519
497
488
490
496
478
468
475
493
496
494
501
516
540
535
510
499
488
481
495
506
482
471
483
477
473
483
505
533
520
493
490
505
522
527
532
524
507
506
505
506
519
539
546
524
486
476
477
484
485
491
509
527
514
510
508
502
498
507
530
524
499
500
507
509
508
510
512
520
548
548
533
527
513
489
493
500
510
520
509
477
486
502
496
487
495
501
505
516
508
511
526
527
522
534
543
550
543
535
534
532
526
532
533
523
533
561
571
578
556
547
561
554
536
549
557
562
569
539
530
527
513
494
478
465
466
478
481
484
501
523
524
494
461
457
475
478
492
501
503
502
507
517
517
491
483
485
483
493
512
535
543
523
474
457
473
490
493
525
569
626
694
741
779
821
849
817
751
701
619
491
401
348
317
288
280
281
306
336
383
417
451
477
484
485
494
518
512
484
485
496
497
522
538
525
504
489
501
496
512
517
511
515
531
537
536
543
532
518
513
544
561
550
532
529
524
510
493
500
521
529
528
526
544
558
541
541
545
555
558
554
536
525
534
551
569
579
578
569
555
545
555
560
580
601
612
622
614
596
593
612
617
594
586
596
602
614
624
633
639
627
626
619
608
604
580
581
601
586
576
547
540
532
515
501
476
464
468
478
471
450
430
427
427
428
419
405
402
422
418
417
449
451
425
410
426
447
460
474
459
446
446
430
405
420
440
474
466
447
435
427
441
463
467
471
476
459
442
432
456
481
474
464
471
479
467
475
495
487
482
473
478
492
500
502
505
493
487
483
505
525
521
493
450
442
460
482
499
526
543
510
477
467
473
495
496
490
484
482
510
530
518
514
504
472
462
482
503
514
512
518
521
499
492
503
502
496
500
502
506
494
479
480
488
512
532
515
476
459
458
465
475
485
516
532
512
506
523
526
524
552
566
551
538
528
527
521
505
482
463
480
488
506
531
536
521
510
521
527
507
487
474
474
491
490
500
511
497
516
528
526
515
526
552
549
525
513
550
566
547
555
577
549
517
512
521
538
564
574
577
575
563
556
546
517
493
492
497
514
525
512
460
433
450
469
483
488
488
491
501
505
491
478
488
492
486
496
506
510
520
518
506
502
490
487
478
474
475
475
476
493
504
543
616
654
695
753
807
846
859
829
759
659
554
468
416
390
326
262
245
260
271
329
407
455
467
477
498
504
482
475
486
495
499
494
467
468
486
515
531
515
518
525
528
508
509
527
545
535
506
498
514
533
540
541
539
525
504
511
527
517
522
532
534
548
561
532
513
523
518
516
528
539
530
521
529
528
524
525
527
556
578
586
591
606
625
618
607
600
593
581
577
565
569
600
621
634
631
614
617
630
625
632
628
590
576
612
621
612
583
544
528
530
544
540
553
539
516
509
502
493
478
458
442
450
459
462
449
429
429
432
421
418
398
384
409
