657
635
611
599
586
592
606
618
649
665
642
605
451
510
505
452
453
502
535
539
522
527
556
587
608
593
596
623
617
614
623
634
627
610
585
583
577
552
551
537
525
562
623
679
666
629
610
590
584
587
615
627
628
622
633
633
645
700
721
664
571
508
479
467
489
525
548
554
567
619
672
644
577
544
558
612
657
667
616
516
458
450
478
532
569
609
640
645
673
693
675
616
562
501
484
529
548
568
584
584
560
558
587
638
649
623
602
596
601
613
620
604
561
549
570
578
568
574
573
602
624
602
560
536
514
538
557
532
504
476
475
514
549
551
535
482
451
431
425
435
494
547
582
632
710
782
852
904
941
965
920
800
621
417
269
200
195
229
294
385
449
489
478
492
488
459
482
532
557
569
553
496
456
421
439
499
576
650
675
645
593
547
511
462
401
401
457
508
537
546
546
540
546
542
503
489
487
487
500
506
500
526
573
616
607
549
511
500
500
517
539
507
466
472
520
585
622
601
544
441
371
394
421
453
476
538
618
661
622
550
471
419
436
448
440
450
497
530
517
491
504
516
500
487
493
496
496
513
534
536
530
524
526
517
495
489
481
485
489
476
430
414
449
479
482
488
508
502
484
466
423
406
400
406
424
417
426
434
449
474
489
471
444
453
499
528
555
558
517
447
393
385
390
416
413
415
432
423
425
449
491
533
534
513
497
467
442
422
427
486
495
442
407
399
421
458
472
456
451
465
477
487
485
490
521
516
526
552
555
544
490
416
375
382
412
431
450
477
466
456
438
447
494
551
572
561
541
528
506
502
494
484
466
468
489
479
479
519
581
655
687
620
514
411
332
291
301
335
423
505
545
565
557
562
557
537
513
486
489
512
487
442
416
462
496
498
489
475
465
485
499
507
511
518
517
513
505
488
491
515
511
469
410
400
416
471
502
507
522
537
486
412
395
418
439
483
509
498
455
443
489
555
548
542
574
609
593
551
530
556
569
529
484
483
509
545
538
523
511
521
527
516
499
491
488
503
543
605
637
678
728
765
790
856
905
847
753
619
484
395
336
334
358
382
407
423
419
447
476
518
575
602
580
554
561
556
559
564
585
587
542
522
508
522
531
500
451
433
452
472
497
526
562
576
558
559
565
568
576
564
553
534
525
521
533
568
582
571
569
578
586
606
630
593
514
470
460
481
518
544
574
552
489
461
444
430
435
460
479
488
505
501
512
557
578
583
595
609
626
617
613
598
570
540
486
441
442
458
522
623
661
632
583
506
436
423
428
437
449
471
507
551
556
504
458
427
424
434
451
477
523
540
519
488
469
453
453
472
474
437
401
397
414
459
510
558
546
494
448
425
426
445
464
504
538
532
470
379
320
324
380
437
463
483
489
493
473
445
416
411
417
412
407
420
455
489
501
527
567
555
511
476
481
506
519
529
514
473
441
425
439
481
491
481
488
507
506
477
443
416
428
460
504
531
552
561
527
470
447
487
526
533
490
474
482
478
467
443
445
465
498
521
529
529
516
508
501
502
508
482
437
419
459
517
547
518
455
425
425
432
439
499
568
566
519
503
497
494
510
519
523
556
567
574
575
560
529
527
556
575
561
530
494
463
461
471
506
533
548
553
558
580
593
604
603
624
603
499
431
488
555
570
531
486
440
425
447
482
516
533
531
507
470
479
501
491
480
483
474
495
534
562
599
642
668
689
714
750
790
818
826
762
665
582
520
432
373
323
285
276
293
343
446
538
588
610
591
507
432
429
456
465
494
539
583
616
602
573
536
517
528
535
515
492
517
554
587
603
610
586
548
488
476
504
527
536
533
542
556
583
591
608
643
631
583
530
519
533
551
577
584
567
560
544
549
569
583
565
543
553
570
606
585
521
498
536
556
559
577
590
592
563
523
515
551
604
633
612
547
527
529
510
492
504
546
586
586
575
574
581
591
623
624
552
455
392
386
444
495
551
567
536
506
493
511
534
547
567
555
499
477
459
434
438
446
440
459
477
486
508
522
518
500
481
466
482
533
550
481
389
356
404
426
467
494
493
497
487
492
483
477
506
527
516
500
516
548
574
550
515
482
440
446
483
524
538
529
507
489
507
529
519
495
500
513
515
502
491
516
549
532
490
459
482
530
523
474
436
469
532
571
576
563
565
568
539
519
529
535
533
493
425
408
442
488
509
513
488
450
429
445
492
552
570
528
490
519
534
495
469
472
499
508
497
504
535
537
508
498
488
490
512
531
546
546
540
504
483
454
443
459
521
566
565
530
536
594
634
614
553
537
526
496
497
506
512
504
478
469
471
493
537
564
550
526
487
448
432
431
430
463
503
530
543
536
512
503
499
511
534
554
574
595
650
713
751
799
830
789
721
654
566
474
388
352
371
414
453
451
431
423
395
379
398
429
426
433
455
468
515
542
545
560
558
549
528
504
484
491
482
480
490
496
513
519
521
561
580
574
572
584
576
535
521
533
552
525
434
394
435
481
491
495
518
527
545
546
525
522
530
528
508
497
490
506
540
589
626
629
597
571
570
566
551
531
524
503
490
497
511
543
565
575
544
521
498
457
445
474
526
568
584
574
528
488
517
515
483
478
499
505
497
501
503
506
519
514
503
488
464
462
489
495
478
463
430
429
461
460
473
499
478
440
417
406
402
393
424
450
418
415
447
462
468
495
517
525
535
490
430
395
407
446
474
484
489
502
520
505
453
421
436
477
519
513
478
445
425
417
440
449
455
474
480
475
474
496
496
465
446
462
465
483
493
497
522
517
481
451
425
432
466
525
592
616
558
488
489
517
519
491
487
488
468
471
492
505
509
468
406
393
414
433
452
420
415
461
472
479
517
554
572
550
521
530
516
492
505
483
458
457
473
476
454
460
488
514
532
534
536
530
534
524
498
486
472
456
467
484
495
491
487
490
516
516
499
494
508
519
526
522
501
525
526
501
477
490
501
483
461
466
492
544
577
570
562
528
491
487
476
462
452
424
403
422
453
460
477
522
549
552
549
534
512
496
513
575
663
760
869
909
838
735
638
544
444
352
308
312
342
410
472
489
487
463
412
394
418
433
436
445
476
499
491
473
467
457
467
496
526
552
570
527
459
438
452
485
524
540
543
551
550
524
481
456
462
466
481
509
532
554
563
564
556
520
473
457
485
539
546
514
491
500
502
506
517
557
605
625
614
582
538
505
499
474
452
455
501
528
535
538
554
577
592
611
628
615
568
525
504
516
520
523
493
452
477
552
591
576
570
564
563
567
546
515
493
482
495
536
529
524
528
512
467
438
454
487
534
548
551
570
547
528
513
491
456
427
468
531
578
562
515
436
398
388
404
413
422
440
460
478
494
516
522
504
496
501
498
517
539
536
526
498
500
506
530
556
552
528
521
519
498
473
466
467
469
482
527
571
589
629
620
552
500
469
483
485
466
454
440
474
583
673
658
589
547
510
448
427
459
505
545
543
546
554
553
579
565
525
487
459
460
494
524
515
494
492
503
500
487
476
503
541
588
606
550
484
460
448
452
461
503
523
518
519
554
578
570
550
524
548
585
592
553
494
453
431
415
427
457
491
536
576
569
543
527
520
498
481
479
481
479
492
516
545
573
582
570
588
603
593
575
553
533
505
478
460
459
476
515
592
617
622
621
560
518
493
480
457
435
455
487
528
542
538
538
539
532
517
509
535
552
542
544
547
543
543
536
549
530
503
496
506
540
607
695
787
849
854
817
757
711
677
630
550
478
415
366
362
376
359
352
378
418
463
475
468
461
470
505
549
591
614
585
553
523
472
456
473
487
484
464
476
503
515
545
584
583
529
481
470
498
528
527
504
495
504
534
604
663
619
545
485
478
473
491
548
583
591
548
496
485
495
537
569
556
515
509
545
596
609
556
507
508
537
550
545
547
540
513
504
542
581
589
557
530
525
515
496
494
525
571
586
600
585
574
563
563
565
551
544
556
585
594
569
556
556
542
507
503
546
596
615
570
514
492
467
417
388
411
439
452
482
516
498
478
456
415
397
415
452
471
476
502
537
543
505
490
504
479
456
475
501
510
517
525
535
546
505
453
444
458
484
494
500
523
571
618
656
608
502
451
462
523
537
499
489
487
529
559
566
551
521
487
474
505
532
537
533
538
525
512
496
484
500
523
546
557
531
491
461
489
543
553
549
516
468
446
465
520
557
582
625
627
570
489
442
435
459
496
517
523
518
526
549
569
548
528
493
461
457
457
463
506
569
595
566
531
496
490
514
528
530
530
538
536
508
459
449
487
517
524
520
502
527
569
584
572
577
614
647
628
554
485
447
440
450
446
455
461
485
500
534
529
507
519
529
529
521
517
533
524
494
492
496
496
494
492
485
491
513
567
597
594
580
568
587
601
571
536
498
473
481
487
499
533
543
517
473
466
483
487
509
520
498
467
473
502
496
489
500
531
576
602
582
570
577
564
563
560
533
507
492
504
543
531
500
505
531
576
594
570
553
545
522
504
499
481
458
477
516
554
568
547
526
534
524
500
461
438
452
487
550
596
572
506
483
478
504
561
663
779
844
881
901
873
805
707
578
445
362
348
348
366
420
474
481
478
481
490
492
489
502
513
518
488
473
433
405
415
446
475
484
465
440
459
473
462
460
463
495
520
532
519
521
513
533
553
551
547
555
548
538
512
495
486
489
514
529
525
527
521
510
527
523
504
478
486
519
536
534
501
462
438
459
508
540
562
567
561
554
544
540
547
576
601
606
559
501
488
505
516
519
514
513
525
523
505
503
502
516
542
536
521
512
549
605
621
591
548
548
528
482
461
497
514
493
510
546
560
544
489
436
444
454
457
470
438
430
452
447
425
410
411
409
425
463
506
513
452
409
366
360
408
477
545
551
507
470
435
423
435
461
486
493
486
470
438
442
464
493
532
542
517
504
534
544
517
485
444
395
381
382
391
452
526
551
509
478
454
445
455
479
487
503
541
542
501
456
473
490
479
490
497
510
485
431
410
423
455
476
488
492
457
409
387
412
443
470
489
501
514
534
512
484
457
450
476
490
461
447
477
496
510
530
532
534
525
516
502
452
418
414
418
447
496
527
560
580
544
464
409
405
411
417
441
484
524
525
497
488
455
410
387
371
372
413
441
468
476
482
484
507
535
541
548
527
461
422
439
474
515
552
527
476
421
403
436
452
432
416
420
458
470
463
459
461
450
432
412
391
438
508
553
563
518
469
436
419
425
438
449
462
477
483
480
503
511
472
429
437
450
435
420
419
445
487
501
474
433
412
427
464
490
484
443
415
412
426
464
489
504
521
538
534
490
446
420
404
398
414
448
477
487
502
478
479
488
462
449
449
434
434
457
464
448
445
460
480
503
499
492
512
494
458
455
459
470
491
505
465
425
419
446
494
541
556
519
467
428
405
412
461
506
537
530
492
478
466
429
413
438
463
471
463
465
468
485
500
490
473
484
506
473
440
463
487
513
518
545
662
791
871
882
832
770
708
626
531
418
318
284
310
364
437
467
431
393
392
409
425
427
420
441
471
477
468
434
409
401
421
461
467
448
425
452
515
562
579
578
558
538
482
456
456
462
465
457
461
476
464
448
469
504
536
564
581
575
571
558
515
458
419
411
443
501
538
522
519
510
491
465
444
443
476
506
540
555
560
565
532
502
503
521
554
554
533
517
516
527
547
585
590
581
571
528
475
462
493
530
542
556
568
570
562
553
540
533
526
545
582
581
536
505
502
542
575
613
633
632
586
506
455
458
477
500
504
502
498
518
570
599
575
526
478
473
493
510
514
505
524
560
592
597
570
515
462
452
465
503
544
557
574
567
552
547
555
556
584
606
560
508
477
470
508
554
574
557
531
507
514
541
596
622
595
516
492
507
517
532
543
557
563
551
549
557
550
534
524
542
550
544
543
545
524
526
538
543
580
635
677
672
627
566
510
489
494
503
492
456
486
518
564
577
559
551
533
502
487
516
553
582
572
544
549
553
552
547
532
528
523
536
582
630
675
671
639
585
557
534
488
461
476
524
541
516
504
542
555
550
523
521
521
523
542
560
571
579
564
535
528
589
633
626
601
585
577
564
541
547
574
597
577
547
520
510
519
541
569
580
579
564
574
604
617
580
536
512
505
520
533
535
530
530
555
565
570
564
524
490
486
506
550
583
603
594
554
522
526
564
594
595
589
590
615
610
566
538
558
589
577
546
508
482
470
503
556
595
591
547
515
527
544
531
511
523
554
580
589
587
572
550
514
528
560
551
539
551
580
590
582
549
505
490
537
565
560
561
558
535
506
498
514
531
531
523
492
472
488
509
510
522
528
549
575
590
568
533
519
542
562
572
580
568
533
514
535
548
553
546
538
524
508
518
534
525
482
461
478
505
526
537
552
555
541
512
490
487
510
555
612
667
713
760
792
807
799
748
676
574
472
427
428
436
415
387
364
344
353
392
443
482
496
503
494
476
476
499
533
543
489
447
440
451
478
505
523
499
481
492
518
533
546
550
492
450
439
470
505
527
531
517
464
445
495
563
586
566
540
524
515
547
591
608
613
556
487
455
452
470
531
556
541
529
520
505
513
539
530
537
563
566
558
541
548
563
578
600
627
622
555
480
483
544
569
579
574
544
567
623
633
625
612
608
597
579
549
519
492
499
551
585
598
587
555
525
509
510
489
434
392
381
400
444
479
513
551
558
561
531
477
463
475
475
475
444
429
443
469
496
490
500
530
539
487
448
465
510
525
486
448
446
451
459
482
487
486
518
535
526
524
512
512
502
496
503
477
456
456
479
482
486
506
483
446
445
470
504
501
472
464
487
524
536
552
527
495
482
469
466
483
501
503
480
448
433
452
461
468
494
488
454
428
454
488
512
560
572
520
467
471
510
543
533
532
532
524
515
491
472
483
527
556
567
544
512
479
419
390
397
401
399
392
408
436
436
447
472
490
494
485
485
512
520
507
497
491
479
494
530
526
504
501
510
502
504
531
568
626
647
603
549
501
474
463
480
494
494
475
464
461
469
465
422
406
439
474
482
513
536
544
555
530
489
484
524
580
599
573
527
505
520
553
609
672
703
722
681
567
467
400
400
442
490
496
470
467
480
494
537
506
442
414
388
404
421
414
416
410
399
418
476
539
579
587
551
520
511
519
574
645
668
623
552
497
467
432
418
465
509
500
476
451
448
463
505
549
571
561
549
560
567
563
540
506
498
510
524
510
509
550
635
731
754
704
605
479
380
346
348
377
405
437
484
520
527
509
478
469
474
484
492
508
489
446
444
444
418
397
431
553
684
791
899
947
897
803
754
736
716
669
598
515
438
365
318
289
299
361
397
385
377
387
400
412
426
440
457
470
483
478
444
366
336
423
533
628
637
572
496
442
444
439
432
435
458
481
499
498
506
530
532
455
366
358
396
436
453
458
463
465
474
507
552
552
552
556
550
535
536
523
462
434
420
431
465
475
497
504
502
526
564
580
564
521
515
497
456
443
458
464
466
511
592
618
578
554
549
563
543
483
441
456
487
510
517
520
518
513
508
484
469
467
487
533
552
538
531
516
491
460
426
377
349
367
397
432
465
477
499
494
456
428
396
383
399
407
380
381
409
419
438
452
430
451
490
517
518
485
445
453
446
410
409
444
499
497
441
401
382
388
424
477
519
516
511
492
483
493
493
476
451
453
465
486
497
491
456
412
392
434
489
476
446
451
479
531
549
527
475
454
457
454
465
471
449
436
468
504
526
551
560
571
539
451
425
450
456
470
478
490
520
544
526
502
470
459
446
444
465
510
542
531
490
461
448
454
481
518
536
544
532
482
438
426
427
425
434
455
488
489
474
473
473
438
397
424
511
564
563
547
557
565
559
545
505
458
439
448
451
466
513
561
574
533
484
449
417
393
402
453
500
536
537
513
509
529
536
535
535
505
482
502
524
539
546
501
446
422
385
350
339
388
459
522
559
563
527
489
479
458
443
462
485
470
483
510
552
572
540
468
428
438
467
515
546
554
556
527
491
493
509
484
472
488
497
503
537
555
530
492
458
438
458
471
473
451
446
476
505
523
495
450
461
518
566
595
631
652
637
573
510
449
402
412
479
551
659
773
852
889
892
891
832
748
649
514
397
346
353
360
380
430
469
490
500
511
546
606
649
624
554
461
419
447
480
516
561
607
628
600
530
492
442
408
436
484
510
508
498
508
551
588
587
566
552
561
565
560
555
559
548
492
438
442
467
493
520
535
521
495
496
521
539
557
568
574
573
552
502
456
442
445
441
462
515
548
544
526
518
526
529
549
569
585
603
579
516
473
432
422
469
542
577
569
554
546
510
488
491
510
513
506
526
544
560
560
518
472
449
462
488
492
471
473
485
470
461
459
450
451
441
424
434
484
525
503
451
410
402
411
402
419
412
385
382
413
455
509
544
545
526
520
537
490
424
372
349
392
453
471
460
499
527
532
531
490
456
447
444
450
455
421
395
434
491
488
476
481
469
462
462
480
487
468
469
481
491
503
517
516
506
518
547
547
500
475
462
454
442
428
426
428
418
454
494
512
531
518
485
470
478
452
403
407
433
450
468
498
521
564
604
596
537
477
423
404
406
383
369
394
430
481
527
547
579
583
518
438
382
352
387
454
477
442
420
422
437
477
520
528
505
474
439
421
434
445
410
386
401
392
389
397
420
448
469
493
523
548
556
572
547
512
477
474
478
433
376
364
385
411
437
427
424
440
433
409
410
426
445
465
474
493
522
519
492
456
402
353
371
416
458
493
504
495
499
510
498
453
414
412
444
453
457
470
471
452
448
465
486
498
485
446
419
416
420
392
369
373
386
431
455
444
430
434
441
444
447
449
479
556
627
664
689
697
716
736
776
778
726
655
555
448
362
344
335
303
273
276
334
394
407
377
380
395
406
408
421
425
425
441
450
465
466
455
487
500
466
454
484
480
453
455
461
442
396
393
393
395
401
398
390
415
449
462
469
484
512
536
512
460
412
412
429
467
505
511
503
525
555
549
505
480
486
482
482
484
482
512
532
503
456
426
435
482
502
470
450
459
492
523
545
549
542
533
529
518
496
477
471
486
531
574
625
660
634
577
509
467
483
500
502
511
544
548
563
617
645
575
499
467
453
436
430
440
445
454
474
506
528
513
460
422
417
430
478
531
562
537
474
447
461
442
421
452
480
484
483
471
481
531
568
560
523
504
493
473
449
446
467
464
454
448
476
514
546
576
608
611
595
542
467
430
431
445
468
524
564
579
573
555
540
549
560
558
526
492
476
474
500
565
615
619
600
550
521
501
482
497
533
529
499
505
541
586
602
597
551
509
494
501
527
548
571
580
601
619
590
504
403
410
485
528
531
565
602
600
590
589
597
555
520
526
564
606
608
599
605
608
581
548
533
546
576
605
601
563
529
546
574
557
536
514
508
501
509
546
609
665
668
605
540
489
465
473
491
518
559
603
662
660
640
650
665
654
574
491
441
429
442
488
564
630
636
594
568
578
600
603
578
579
627
684
665
610
544
507
521
539
554
594
625
600
546
527
545
568
578
599
604
595
580
551
521
497
494
539
587
603
591
607
603
597
607
622
618
592
554
497
483
508
544
616
685
788
940
1023
1023
1017
870
720
584
458
369
337
341
378
431
489
519
524
525
519
503
465
464
491
523
559
580
590
594
581
582
590
591
569
529
529
570
586
573
581
584
564
546
551
544
551
562
535
505
487
508
552
572
596
611
600
599
577
543
565
605
639
633
617
611
613
605
615
598
552
509
515
545
573
587
609
610
591
549
521
525
551
584
601
607
608
626
596
583
594
611
639
647
657
641
614
626
645
645
632
615
610
613
622
618
608
589
588
595
611
609
621
624
611
579
538
518
543
589
582
552
529
500
476
478
503
498
484
493
475
447
470
512
526
522
507
499
531
544
527
550
582
579
546
496
448
450
474
538
612
640
611
563
500
460
475
518
538
528
508
482
477
502
506
495
497
538
570
570
569
603
646
649
576
491
456
448
452
489
556
617
632
604
564
542
540
554
549
517
482
489
517
555
591
609
612
578
536
537
535
517
509
499
505
549
617
633
622
643
614
533
481
471
483
504
504
501
514
548
588
608
617
589
567
554
533
533
523
533
567
577
584
590
567
525
512
536
590
591
574
557
573
595
606
583
535
466
447
465
515
576
609
608
564
515
510
511
512
494
483
503
514
505
493
500
524
559
567
536
521
552
574
563
544
534
539
547
583
605
606
592
562
520
495
501
525
548
548
554
573
571
540
503
477
499
529
514
519
544
534
510
496
491
494
505
515
506
493
476
457
452
518
589
609
601
588
559
533
533
519
479
472
493
520
513
463
429
422
447
506
582
646
679
660
665
741
818
878
922
897
814
691
535
379
288
283
325
364
372
391
426
447
475
486
497
499
489
486
486
493
521
518
499
494
504
510
525
489
427
391
416
460
504
552
579
573
558
532
526
553
594
600
589
539
489
481
461
449
452
496
542
517
458
457
496
528
518
495
486
495
511
558
582
563
513
489
523
510
503
514
519
535
551
558
570
564
527
491
482
512
540
546
556
575
580
574
544
503
489
527
562
568
550
530
516
501
499
485
476
486
495
521
559
560
553
549
542
520
507
494
455
432
463
494
518
494
465
431
403
417
465
488
487
499
505
509
499
496
472
458
451
427
405
378
391
427
459
470
476
493
529
587
600
560
473
389
364
375
399
451
487
480
467
486
522
498
462
427
399
400
429
453
456
451
458
470
488
503
533
539
511
498
505
527
556
567
559
549
499
437
408
405
400
414
441
444
450
499
525
505
471
445
452
476
508
510
478
467
491
513
537
545
494
426
391
422
448
467
460
448
447
483
536
552
495
428
398
387
426
501
537
527
512
503
467
436
449
451
459
486
501
509
516
543
567
599
597
560
514
476
453
440
451
464
459
459
472
494
495
489
485
506
529
507
461
412
411
469
544
585
564
514
484
480
478
467
477
496
520
538
544
536
501
459
453
484
512
495
446
404
402
423
472
497
518
530
514
490
481
490
499
521
552
564
536
502
472
468
500
557
569
552
545
564
573
573
560
545
549
525
497
465
421
417
445
450
453
485
513
550
564
538
534
497
479
487
477
458
459
493
510
486
441
450
530
620
698
756
818
868
873
850
774
667
566
473
407
360
344
330
322
309
334
384
414
415
420
460
527
560
558
541
499
460
430
414
416
394
392
410
428
465
540
588
586
550
521
479
460
488
507
515
541
554
565
521
453
427
439
446
438
457
488
512
551
575
566
531
519
484
446
432
431
435
486
524
544
579
560
519
514
532
548
555
510
478
478
495
517
512
493
471
506
544
544
527
485
490
523
541
539
538
543
548
546
568
571
587
592
565
514
467
450
477
505
528
569
573
543
488
433
415
451
480
508
527
533
517
468
424
395
419
457
473
482
497
532
563
550
504
441
405
400
420
447
442
415
389
401
448
477
490
492
494
504
485
449
459
481
460
410
391
434
485
507
499
508
521
512
504
509
529
562
542
475
449
445
471
491
457
399
371
376
421
455
475
470
466
484
503
551
575
578
571
525
481
464
462
460
455
471
466
476
523
577
611
606
584
509
412
353
361
422
490
501
472
473
460
466
489
497
495
499
520
552
566
531
493
465
450
452
468
485
514
533
528
549
568
564
550
525
492
494
501
474
432
416
411
417
456
512
550
541
501
485
509
537
555
518
489
518
541
528
486
455
463
482
504
538
557
570
550
504
443
413
421
437
476
506
479
466
487
504
520
529
492
464
462
447
456
478
513
531
532
532
532
507
496
510
514
532
562
579
586
565
534
488
437
408
398
381
396
455
509
540
556
550
518
499
492
490
512
547
585
596
551
513
498
496
510
501
494
519
513
485
497
515
501
452
406
406
413
420
474
520
527
499
456
438
450
448
452
510
562
636
718
771
797
821
831
790
702
600
512
440
373
326
297
288
303
371
439
457
483
525
525
489
473
458
445
428
401
384
401
453
470
468
462
454
486
510
520
528
502
455
427
420
460
521
543
537
535
535
530
515
533
550
560
586
580
555
521
464
436
431
442
485
521
535
525
501
492
502
486
485
491
463
433
430
466
515
548
569
549
519
529
560
572
572
586
616
614
560
532
547
563
553
521
473
462
492
493
489
508
494
492
498
489
498
531
574
583
556
522
492
478
493
523
539
558
566
544
509
493
478
470
473
499
550
567
539
513
499
463
420
412
410
421
421
392
355
350
374
426
470
497
497
505
522
522
482
454
457
461
487
514
534
532
521
544
559
543
538
540
520
467
396
354
341
379
436
478
518
546
536
524
505
480
482
483
454
436
437
451
478
479
491
507
497
479
494
531
559
545
503
461
452
482
525
551
542
512
504
486
475
486
501
519
533
524
504
481
468
452
421
398
437
496
538
565
559
513
475
464
459
460
484
517
558
573
553
513
499
517
513
484
464
467
492
534
574
573
519
479
480
485
490
505
490
481
462
485
512
491
483
495
511
545
559
552
555
548
543
550
532
476
419
392
401
435
472
518
533
506
505
503
513
532
517
508
510
515
504
488
503
503
496
501
524
536
536
523
508
488
488
508
512
519
522
492
503
516
494
493
507
498
483
468
471
480
491
508
521
547
562
514
461
449
485
518
537
547
547
561
565
556
533
505
504
494
460
426
422
417
423
446
467
483
515
539
542
510
500
503
498
484
475
475
450
423
426
444
489
548
635
731
823
859
836
756
667
598
528
453
381
334
342
369
362
326
310
346
401
448
491
512
521
546
576
543
489
460
421
397
418
447
439
446
463
451
446
452
479
500
501
515
513
496
497
481
459
475
484
495
507
503
501
511
521
497
460
424
414
438
454
455
463
491
526
552
580
608
609
579
527
475
447
449
462
496
513
495
481
483
511
510
499
511
527
538
518
509
513
500
499
512
539
561
551
534
541
535
522
551
571
558
507
458
452
456
472
505
540
539
516
498
507
514
496
475
455
429
447
455
442
462
504
506
482
470
444
392
379
390
407
401
407
418
401
401
421
448
474
464
427
420
434
461
464
453
473
500
516
512
482
459
461
462
463
444
434
438
463
466
448
457
483
536
584
541
426
347
321
347
382
423
496
525
520
529
512
497
492
457
437
417
427
448
480
505
504
513
527
529
534
564
560
506
487
520
557
516
427
391
371
370
422
496
526
515
523
561
582
573
520
474
423
391
412
436
452
499
537
548
582
615
607
555
487
458
461
457
436
460
472
460
440
468
521
553
579
606
626
563
468
430
438
452
488
500
484
487
480
447
453
485
546
560
553
573
584
555
516
493
508
510
491
483
503
516
525
542
543
562
589
557
486
459
483
524
538
519
462
439
462
486
510
480
493
543
581
573
536
514
512
517
509
523
574
620
604
536
496
503
501
505
530
553
583
612
589
555
553
539
471
408
413
471
543
596
606
591
528
454
399
418
487
544
567
546
555
603
628
596
546
496
457
467
493
528
566
577
549
518
496
506
508
506
552
631
686
717
764
837
900
932
878
748
603
478
388
309
276
319
366
395
416
434
434
434
445
467
501
534
530
516
538
565
580
576
538
498
483
473
495
522
551
546
497
467
505
584
588
553
530
487
446
444
469
497
524
543
551
557
559
592
614
599
539
492
500
521
545
562
547
552
566
574
608
601
568
562
581
585
570
583
610
611
594
560
538
551
567
569
569
554
536
537
546
558
591
631
659
662
634
632
618
569
538
505
449
463
541
589
608
623
627
626
612
608
579
551
541
536
532
548
563
544
525
530
558
569
553
543
546
552
528
491
460
455
451
429
434
484
535
578
609
633
626
569
480
430
451
470
455
442
436
438
446
474
499
523
548
546
549
562
578
597
599
564
530
498
502
513
495
480
496
514
520
531
550
568
570
579
590
557
520
509
528
572
564
521
480
461
464
462
468
491
512
516
524
506
502
523
573
570
539
533
555
595
623
620
616
591
559
532
524
520
528
533
535
542
557
563
558
526
503
520
538
537
522
496
497
493
480
504
517
543
576
561
560
550
510
471
445
475
536
571
600
606
612
620
614
598
561
531
505
495
527
594
655
671
655
614
544
482
487
532
544
572
586
554
533
541
551
542
524
513
491
479
510
516
508
534
558
544
547
565
605
627
627
645
636
594
570
590
595
592
579
564
565
534
508
501
517
540
560
545
515
504
526
554
560
545
515
501
518
530
545
556
557
529
533
525
514
534
568
563
531
520
527
529
520
517
512
532
562
599
649
713
791
850
854
810
730
627
530
447
396
382
381
375
358
351
348
380
424
458
462
470
499
520
523
481
425
433
465
488
519
564
581
575
554
552
568
583
572
556
506
472
472
528
593
611
604
584
536
490
466
468
490
500
537
569
583
578
555
548
530
523
523
511
501
496
519
563
603
614
579
523
476
472
493
532
541
562
575
548
525
536
554
543
578
606
616
614
574
563
558
531
538
566
597
608
602
574
558
562
548
550
592
586
542
508
502
527
529
522
503
474
477
528
560
534
521
511
497
508
551
572
541
499
476
466
472
495
503
485
466
486
520
496
472
480
496
504
513
480
444
453
495
522
501
465
445
455
443
416
419
440
454
471
469
449
439
448
482
498
496
525
544
527
522
524
522
517
531
533
485
449
439
455
483
506
509
518
516
504
499
517
542
507
464
435
443
509
539
539
533
533
484
400
359
384
453
512
523
504
501
504
512
512
527
538
503
436
444
498
533
508
517
549
565
570
548
502
470
469
468
470
481
486
481
474
465
460
457
478
509
546
533
479
476
475
446
445
445
437
460
492
506
521
547
566
562
532
513
506
485
460
471
494
519
529
535
523
514
512
527
567
579
549
516
498
473
435
436
429
445
459
485
520
561
565
552
528
511
499
498
493
491
476
462
446
466
489
496
499
521
509
468
463
495
498
482
480
464
449
446
499
605
674
685
679
721
791
824
778
698
619
500
366
286
232
223
259
318
392
441
469
490
484
463
453
454
453
449
458
474
472
487
502
521
545
551
555
549
526
507
486
474
471
448
425
426
458
469
490
507
495
472
466
487
515
525
510
504
530
554
536
523
545
566
562
545
539
526
486
454
435
428
430
463
505
529
529
540
588
617
612
593
527
456
449
475
485
478
479
496
549
618
627
579
568
561
557
520
464
476
510
544
574
576
565
555
556
528
494
510
531
523
510
517
511
506
527
558
541
527
493
456
450
463
486
487
486
483
483
473
436
424
434
435
420
426
431
429
444
484
493
497
495
472
439
407
408
437
447
444
471
488
488
463
435
447
450
430
423
452
497
539
542
512
479
455
455
494
496
471
488
519
539
562
563
550
528
507
498
517
546
526
488
496
518
534
548
550
542
549
573
582
560
494
438
457
514
527
495
474
482
474
488
523
528
540
534
507
509
527
552
557
566
575
549
489
445
464
499
501
508
548
541
517
524
545
554
551
537
531
512
461
423
398
384
420
506
560
566
584
576
521
458
415
412
470
525
519
486
481
508
541
548
517
488
497
515
533
538
529
525
530
527
514
485
460
450
433
434
452
487
529
571
584
574
541
504
506
510
504
483
457
429
446
474
487
493
486
492
516
539
543
549
543
521
469
426
419
418
405
409
426
442
461
474
476
477
487
530
607
669
718
760
799
793
763
683
534
427
375
338
328
344
392
443
454
451
479
479
431
388
395
415
414
397
388
372
369
402
425
438
447
438
431
424
397
395
409
422
464
531
536
521
487
456
447
456
446
429
422
449
514
568
574
532
453
394
388
429
465
486
508
527
518
492
446
397
415
448
459
455
461
473
458
445
466
464
468
495
507
500
492
505
519
504
494
472
433
412
409
387
385
449
547
616
586
524
497
464
436
449
480
492
485
471
447
460
478
504
535
563
562
517
464
420
401
401
395
416
446
435
426
435
449
445
431
420
408
413
429
399
365
374
435
492
498
487
437
407
397
376
362
371
411
450
492
510
485
436
420
414
435
450
473
489
469
437
420
415
398
393
391
400
431
478
507
504
446
379
354
343
356
401
448
491
534
561
534
489
460
446
440
471
478
471
477
450
439
425
419
428
463
489
493
464
434
408
400
446
484
496
477
476
498
489
468
435
409
430
457
475
507
510
467
421
396
414
444
467
478
490
528
545
497
445
451
481
484
469
460
426
421
455
504
546
532
478
425
419
427
427
444
442
448
477
485
484
471
447
444
482
516
517
505
491
458
459
514
555
559
553
559
579
554
519
481
432
403
409
426
468
526
545
529
514
505
494
493
499
469
444
445
436
436
452
475
502
516
534
527
503
476
454
424
414
450
504
524
536
535
529
529
553
607
663
696
728
781
842
825
753
677
581
478
402
353
339
367
405
426
446
473
484
475
476
486
462
440
417
416
448
489
546
584
551
523
527
535
533
517
513
517
503
487
492
481
472
464
448
457
508
549
586
615
628
591
529
507
512
514
503
470
442
446
455
513
598
620
593
569
550
545
535
535
532
550
580
592
538
477
435
427
460
503
527
535
538
556
585
612
624
626
600
564
539
551
575
567
546
522
514
557
591
577
540
509
493
531
578
611
625
601
574
568
555
567
538
475
440
458
487
516
507
528
561
569
505
410
393
428
457
477
504
532
535
509
466
452
459
472
520
553
536
514
482
470
489
514
532
562
544
481
442
466
520
561
558
530
505
460
462
516
550
504
480
482
477
484
504
534
566
589
574
552
538
508
490
507
518
509
524
543
581
568
521
492
510
530
548
534
522
529
560
587
591
563
524
487
483
520
569
576
568
540
532
543
536
526
510
519
544
545
520
494
489
481
476
509
549
545
532
527
535
534
546
555
548
546
543
547
573
590
565
545
522
500
496
538
560
536
523
502
486
495
520
543
554
556
574
573
554
557
557
539
516
493
502
516
528
536
546
549
561
577
594
599
596
532
472
489
516
513
514
539
545
544
574
594
590
569
552
555
573
608
631
637
590
531
509
518
500
477
476
496
491
492
523
556
594
635
645
590
508
476
492
519
553
563
551
527
504
503
494
478
505
560
618
637
654
695
735
774
815
840
860
838
773
701
614
522
448
405
392
388
374
363
387
429
475
536
594
575
538
518
512
525
544
537
515
484
473
458
467
500
534
551
552
526
520
541
565
586
604
615
614
573
533
507
495
494
516
523
527
542
543
553
581
616
603
543
501
488
484
489
521
577
618
633
635
617
579
541
516
485
468
496
544
583
576
573
589
585
572
578
580
557
529
528
551
537
558
607
629
620
605
601
600
583
559
515
508
497
520
578
629
622
602
586
567
560
547
521
497
497
510
511
473
444
473
515
518
500
532
589
595
564
548
517
492
498
509
505
517
536
531
531
561
590
569
533
512
516
523
512
496
452
413
397
406
444
493
552
595
596
572
548
556
561
543
506
485
485
478
471
485
534
573
564
575
597
603
608
604
577
503
435
426
471
518
540
567
593
617
616
543
445
417
423
454
508
567
620
637
617
571
519
472
441
433
480
553
592
609
583
532
510
535
552
551
529
516
508
499
517
542
568
562
562
572
593
609
577
540
519
531
577
605
553
503
493
496
478
468
476
497
494
499
502
493
482
504
545
569
550
505
506
560
587
572
539
508
519
578
639
645
580
497
466
466
463
504
557
568
570
582
573
548
491
433
435
469
536
566
571
564
558
563
555
545
521
503
497
515
519
508
514
530
552
552
524
507
497
485
473
487
520
550
585
611
619
611
614
598
598
591
506
399
369
458
568
561
503
485
514
535
538
528
527
556
579
570
542
530
518
488
477
492
534
573
568
549
527
502
493
517
519
484
449
440
448
465
495
524
518
471
432
438
475
539
614
655
674
737
831
927
961
891
720
558
446
400
376
389
442
497
511
494
485
470
505
581
642
671
698
726
709
618
527
484
473
515
591
647
679
701
728
746
773
775
772
771
754
711
668
645
641
655
685
693
672
706
769
815
850
869
858
835
816
855
902
961
1008
991
918
846
821
854
930
983
1003
960
895
825
807
861
919
939
939
925
886
875
888
888
896
911
917
889
876
849
824
844
875
889
865
749
649
590
615
629
622
623
603
566
584
619
603
563
530
483
421
378
343
339
393
450
484
516
486
426
333
270
255
314
427
451
393
314
254
248
241
228
226
213
201
176
118
112
180
242
263
250
227
264
282
270
268
301
310
295
259
213
183
204
261
288
312
344
313
258
221
221
269
322
344
313
271
218
190
196
231
315
394
424
368
296
235
176
151
202
318
408
478
524
557
547
477
434
381
344
394
438
479
517
505
446
405
394
398
370
311
232
164
148
168
252
417
551
579
604
660
716
674
532
333
200
186
235
304
344
308
287
336
420
485
518
494
454
432
444
445
420
393
467
501
485
492
479
496
480
404
372
431
514
581
620
610
600
586
561
566
614
651
631
598
617
611
551
512
550
626
672
685
697
699
734
714
606
468
419
446
488
502
507
578
660
707
758
792
787
770
690
635
621
582
526
496
499
494
484
503
498
507
581
640
658
610
514
427
442
489
525
539
517
506
502
530
551
550
591
624
570
532
511
437
409
430
456
456
478
523
515
465
489
522
520
511
489
496
508
498
464
428
354
307
306
294
307
318
378
467
547
574
498
393
297
230
205
257
336
435
503
489
424
375
334
390
506
555
596
552
450
315
217
207
220
305
435
449
343
221
162
204
283
366
403
388
358
393
484
559
553
467
369
311
299
319
310
284
243
216
223
285
339
362
382
420
422
351
261
253
323
379
479
644
738
737
684
594
519
441
306
158
83
45
77
96
123
160
174
150
156
199
183
120
129
136
74
46
101
193
284
371
443
501
469
429
395
350
313
321
349
371
360
372
412
418
376
335
272
178
93
75
150
240
308
306
255
223
242
293
334
349
379
403
421
419
433
449
443
461
504
522
511
529
538
548
585
606
572
534
544
578
625
697
728
717
652
584
545
488
475
504
537
573
568
545
598
670
714
734
720
686
665
683
697
692
690
671
649
631
623
623
652
649
657
658
648
619
585
557
579
626
620
635
698
718
683
714
740
694
625
571
531
522
547
593
644
692
644
582
563
574
663
706
654
627
639
662
684
668
617
570
480
380
403
488
495
476
447
447
458
457
440
435
418
409
443
455
416
360
325
320
355
415
426
350
305
293
304
357
424
459
440
459
528
504
379
275
258
261
260
279
308
320
377
465
506
443
358
306
299
304
281
234
230
254
324
353
411
475
489
466
435
411
409
463
556
571
492
432
387
393
462
542
544
511
499
468
393
326
311
336
364
400
464
507
490
446
383
360
376
391
424
452
465
439
382
373
405
427
443
459
455
465
509
549
543
511
477
450
421
405
376
375
404
459
509
573
615
623
576
544
526
511
558
641
707
710
721
752
755
739
691
631
606
615
655
718
765
737
666
656
722
816
820
772
691
628
574
531
567
693
788
831
818
778
759
729
701
729
816
831
775
727
720
772
872
905
834
767
775
821
828
830
837
821
817
799
803
756
702
780
826
785
750
701
659
655
628
601
572
604
644
639
592
525
473
454
453
485
550
652
692
615
514
386
322
356
421
468
446
377
300
280
364
501
616
589
469
428
446
437
440
442
447
471
513
486
499
563
606
637
606
534
495
448
372
310
271
273
313
409
523
567
530
459
384
288
262
311
368
414
457
456
517
634
678
707
724
739
728
748
780
749
624
496
411
346
300
346
436
493
480
422
320
225
236
323
402
434
437
459
547
648
697
609
408
254
247
292
384
426
419
410
436
507
550
474
342
288
310
354
383
422
464
464
412
361
353
309
227
193
241
320
469
662
758
760
712
653
573
515
517
601
638
628
637
682
714
715
724
699
665
676
685
659
613
571
530
501
500
522
529
526
580
640
639
608
560
507
521
589
612
576
571
613
676
660
586
545
583
661
697
687
679
666
620
570
572
592
607
608
594
591
574
605
661
664
612
544
549
583
604
625
645
656
622
531
449
414
412
453
541
655
680
632
580
571
568
559
556
571
619
710
782
722
600
475
375
402
501
527
517
575
620
607
566
538
535
515
518
513
493
489
533
544
503
494
485
481
470
468
469
484
500
509
520
539
514
444
381
358
387
409
417
345
299
281
267
273
352
427
424
419
379
292
214
206
236
345
471
482
425
344
302
330
374
408
451
522
570
479
299
184
169
273
427
486
467
424
428
471
478
491
527
591
644
620
548
496
476
486
504
509
551
586
601
606
588
601
638
660
672
665
640
626
602
575
550
534
543
573
605
618
595
607
655
661
627
563
494
450
464
535
605
631
603
591
611
639
664
652
641
659
709
718
669
618
586
566
582
622
667
687
673
675
690
709
718
729
765
791
763
729
742
780
795
717
617
547
527
530
542
581
583
557
569
616
601
569
600
641
634
601
599
592
591
605
637
665
664
626
593
577
560
524
469
425
474
555
575
543
521
513
531
543
558
575
559
607
685
702
635
550
546
600
671
689
669
622
574
523
478
499
507
460
430
438
493
534
549
579
550
526
506
546
575
549
546
570
543
486
408
395
441
508
582
619
639
626
594
568
539
536
565
632
656
623
587
568
545
503
465
485
493
497
512
573
624
683
744
782
786
810
863
886
858
807
685
546
455
402
362
342
342
344
401
465
510
484
441
443
461
467
440
408
399
394
424
496
542
532
512
472
484
526
520
527
577
625
648
598
567
535
509
510
484
518
525
459
427
459
531
648
662
531
308
201
192
214
264
375
471
561
616
627
574
478
344
227
206
324
430
442
446
474
490
506
511
500
471
453
415
378
343
317
284
264
292
350
393
432
510
585
619
673
733
727
639
522
452
480
523
449
302
181
153
189
162
114
158
190
221
316
415
483
522
555
610
639
631
519
425
429
485
569
602
567
560
574
544
466
346
297
293
303
359
419
422
421
432
462
492
501
501
519
551
527
491
488
491
461
461
487
516
584
628
587
513
533
627
620
506
428
461
575
653
641
516
435
441
438
466
549
584
571
561
519
461
428
418
471
559
635
699
632
398
281
385
460
452
497
533
547
587
613
574
529
482
463
427
394
395
425
473
520
546
562
535
515
516
497
452
446
457
433
411
431
475
555
635
683
735
746
626
422
284
235
243
274
319
354
371
395
424
429
446
487
503
481
456
449
484
519
556
552
495
429
389
430
505
583
629
610
550
527
575
637
673
628
507
435
424
451
493
529
563
596
593
589
548
462
425
452
488
500
495
503
488
487
530
583
621
621
641
611
538
453
414
424
465
524
572
570
504
400
341
353
400
476
542
557
560
596
609
599
565
531
505
504
495
450
432
495
593
655
646
581
519
486
454
445
450
460
505
534
521
535
513
479
514
593
618
615
598
554
489
478
500
469
442
477
578
687
664
529
333
266
344
464
590
625
511
446
481
522
498
410
341
411
533
605
612
597
553
458
342
300
408
493
583
591
542
495
419
343
291
341
428
506
550
520
393
262
236
302
399
465
544
543
521
540
595
621
659
759
873
909
821
654
485
346
228
162
154
185
249
336
402
475
552
537
482
458
458
495
517
484
441
411
396
376
369
395
388
392
449
532
585
593
608
641
660
624
593
570
507
491
525
530
509
487
504
555
574
581
598
624
654
630
566
504
515
586
667
685
662
621
565
542
536
527
491
438
403
433
501
547
591
625
615
566
508
479
498
507
501
504
485
484
509
547
538
488
483
492
491
463
425
427
473
503
500
497
502
500
472
486
538
586
614
622
623
614
559
496
417
350
322
330
385
448
478
512
521
496
475
478
468
435
410
384
408
439
430
415
424
434
479
535
549
510
477
461
438
421
402
416
419
428
458
481
486
448
416
424
434
451
481
511
520
564
642
672
611
515
452
428
400
404
446
499
523
533
498
443
407
409
442
507
560
598
643
636
589
537
499
502
522
513
498
493
491
523
558
562
544
506
490
517
528
510
508
538
581
604
608
621
619
592
564
541
534
536
518
502
496
508
514
491
478
530
615
598
574
589
610
600
539
495
479
492
509
523
527
493
478
463
451
479
509
508
506
530
543
555
549
512
469
450
463
494
521
544
549
535
544
556
567
570
556
538
524
521
530
564
553
523
493
452
434
466
476
462
460
501
529
545
570
583
576
529
465
424
410
392
384
384
398
425
484
548
586
609
605
559
508
488
495
490
468
469
503
524
526
491
470
462
454
450
458
473
494
497
517
558
561
517
493
465
463
516
546
541
519
478
441
446
526
596
617
608
579
512
444
403
401
435
468
486
523
540
538
552
561
535
481
481
516
553
565
560
567
611
633
580
490
430
424
420
426
442
458
530
578
587
583
558
536
550
579
598
566
552
516
475
424
392
428
469
490
558
641
685
720
781
832
857
854
784
659
505
376
298
261
275
291
317
372
428
457
467
442
409
389
402
412
417
444
485
486
468
449
442
456
468
473
473
459
456
500
544
519
487
520
543
510
469
446
463
488
486
482
454
450
494
530
550
571
592
584
549
505
469
466
517
567
609
637
619
578
536
506
511
523
537
563
574
554
515
514
515
497
500
505
499
520
516
480
475
483
490
508
508
524
555
591
606
615
623
616
624
633
638
641
619
573
504
428
407
423
435
467
488
512
542
569
578
537
489
474
480
460
444
482
561
563
524
490
465
475
483
490
481
456
451
461
486
519
509
483
457
405
373
438
482
497
487
482
489
471
462
468
487
501
501
504
489
446
421
449
484
503
526
524
537
543
547
535
525
487
439
401
383
388
419
455
477
464
452
449
470
519
533
523
501
514
533
557
589
574
531
480
448
440
448
455
488
543
572
549
505
470
450
448
455
492
569
566
558
540
480
422
406
420
459
498
526
552
558
517
481
449
430
441
484
494
483
475
504
542
568
580
595
585
528
451
398
373
370
409
437
446
455
464
483
507
510
538
540
510
483
481
508
543
542
553
539
500
454
424
446
477
492
503
499
505
527
551
559
542
506
516
542
549
519
501
506
488
496
509
493
480
471
467
470
493
515
485
440
431
470
527
550
558
552
546
544
525
503
478
487
532
565
583
575
551
553
544
472
386
346
370
448
494
482
488
517
559
606
652
664
636
553
477
456
474
488
503
512
530
583
619
630
660
656
598
488
427
453
482
490
465
459
474
477
480
499
522
561
576
531
495
488
496
500
534
593
604
546
497
481
483
535
584
573
556
595
663
777
872
905
877
814
746
639
501
420
416
416
400
354
318
336
373
413
453
476
459
473
494
522
534
546
560
538
476
419
415
452
473
452
460
500
555
625
716
770
708
600
503
438
381
348
362
419
488
511
488
488
503
540
551
527
517
510
484
470
482
533
561
571
582
571
528
527
528
521
523
526
487
419
389
417
437
444
478
516
552
557
573
607
624
609
566
533
525
514
522
560
595
601
598
605
626
616
549
488
466
473
470
476
481
489
493
489
477
478
510
525
490
452
454
492
518
521
509
511
528
530
524
520
489
440
401
425
469
513
540
568
592
577
481
396
357
351
369
380
387
399
412
437
446
422
391
408
479
484
452
447
443
449
492
520
522
550
554
518
445
414
411
437
475
491
453
433
437
418
421
438
490
553
574
516
441
387
381
400
464
534
550
545
535
529
544
562
531
477
428
393
394
442
497
533
571
611
601
580
549
514
519
552
545
517
521
524
520
520
508
478
435
393
417
495
556
536
474
460
482
479
439
382
347
344
417
532
597
617
593
587
577
560
580
576
515
458
432
407
399
400
402
396
392
420
486
523
479
442
439
439
455
499
528
536
540
509
459
430
466
528
584
615
592
521
454
415
405
350
326
389
455
488
483
459
450
401
392
448
509
525
506
484
466
463
471
467
486
528
545
553
551
548
517
478
452
439
451
452
462
524
592
637
607
536
463
429
411
471
553
553
489
434
440
493
578
658
724
748
754
765
767
739
680
608
540
444
347
277
214
160
145
199
287
382
461
445
412
407
447
494
526
551
551
520
496
487
487
500
541
549
538
521
522
533
587
623
590
551
520
509
522
556
591
598
607
613
589
545
506
481
513
602
657
636
598
586
578
555
559
587
624
655
600
501
472
507
561
619
669
668
641
623
595
585
581
547
526
539
547
576
612
646
676
694
690
627
570
562
576
569
570
620
654
644
622
574
540
558
610
677
694
693
674
606
535
528
572
607
596
547
502
495
523
526
514
511
528
564
601
606
608
571
501
441
361
284
302
382
410
403
415
461
496
501
500
467
410
385
409
416
425
460
466
458
450
482
544
596
590
504
436
391
362
354
406
502
584
580
515
438
385
398
442
485
541
595
598
567
524
489
469
444
443
494
564
579
563
526
471
450
460
513
546
516
462
424
422
467
521
568
595
552
494
476
476
484
486
501
545
564
554
558
560
580
592
590
573
475
389
390
410
443
506
569
568
530
518
520
502
502
533
572
588
559
536
508
514
525
518
506
521
563
574
578
575
551
540
561
568
522
490
497
528
576
611
626
603
545
525
514
500
481
480
493
514
510
489
499
510
524
541
554
580
609
637
652
621
579
570
554
511
487
468
445
442
446
432
456
503
513
518
540
532
535
527
474
428
460
569
661
724
771
788
802
763
668
569
500
456
421
365
333
330
334
361
415
447
489
555
582
552
491
432
397
382
394
425
477
532
554
532
466
422
408
439
481
496
479
474
505
506
497
481
455
459
488
514
550
615
606
546
472
407
371
376
390
452
507
524
545
588
579
508
463
441
453
500
504
456
440
467
489
520
567
642
649
597
544
524
529
502
478
480
524
555
554
558
576
577
556
543
524
514
544
598
657
702
703
642
577
530
486
466
481
495
534
577
583
549
514
506
510
534
555
577
564
544
515
484
486
511
532
578
605
574
483
397
366
381
367
351
383
439
470
487
495
526
544
540
547
530
497
422
367
357
381
400
423
462
491
531
556
583
603
576
541
525
529
518
527
529
508
503
494
456
441
477
533
564
572
527
461
418
420
439
460
462
457
488
527
534
521
521
509
486
446
423
429
442
475
480
452
413
393
395
443
492
570
640
638
558
453
401
431
501
552
524
461
405
392
415
450
443
433
437
439
448
479
474
452
454
459
469
471
469
512
563
573
543
485
431
462
519
596
654
633
585
573
572
559
552
560
579
577
562
561
566
571
521
459
442
461
482
482
482
485
482
484
502
525
520
513
508
524
530
530
522
546
578
568
578
584
524
457
487
603
716
830
908
920
902
876
829
732
609
512
444
382
336
331
375
419
465
489
550
616
643
637
585
541
518
527
553
573
585
602
644
694
710
661
600
553
607
687
704
665
619
602
618
626
625
622
652
685
680
643
589
541
535
550
568
585
590
614
634
627
612
581
540
543
551
541
509
490
510
501
462
464
484
479
471
480
490
496
450
413
424
474
555
610
615
647
676
660
617
590
525
491
467
427
422
467
530
537
503
511
522
484
442
436
459
467
444
451
484
497
494
497
491
451
407
401
434
502
539
518
453
394
381
380
405
439
452
438
443
441
402
371
359
344
368
432
446
403
341
328
379
441
453
428
379
367
370
384
426
476
487
467
456
474
509
540
545
513
466
445
403
375
393
418
450
491
522
503
496
464
431
431
467
460
432
394
383
420
481
505
494
461
465
485
486
467
440
450
485
535
565
593
588
541
474
442
449
466
481
473
439
408
405
412
434
455
467
474
454
412
412
446
471
505
536
535
509
490
479
467
471
473
495
544
596
616
614
609
613
593
548
493
436
439
501
568
577
539
487
447
424
429
442
426
407
409
430
449
456
455
457
492
552
578
576
575
574
569
560
530
471
424
423
447
492
553
567
567
575
603
648
729
788
801
777
730
651
500
352
259
241
279
321
367
401
438
453
420
388
395
446
497
549
611
629
576
504
435
412
446
477
472
462
467
453
437
453
502
560
592
585
570
534
473
427
393
367
360
378
443
520
584
622
633
609
566
510
478
524
575
594
583
551
524
510
530
550
585
599
567
488
449
470
526
558
528
463
419
440
494
540
571
558
536
536
546
564
594
597
556
529
531
540
551
535
511
517
548
564
554
519
468
469
502
529
565
576
566
543
508
498
533
544
522
519
491
442
452
501
567
607
557
424
317
296
343
411
461
467
452
456
442
424
429
455
480
504
526
545
568
540
464
398
341
326
358
417
473
487
452
426
436
459
462
478
526
572
585
541
471
422
413
423
441
442
446
463
485
483
501
509
510
500
477
438
411
415
464
501
504
516
511
500
496
485
476
507
566
600
560
483
440
442
464
473
486
504
515
531
549
573
573
550
547
574
602
597
584
554
528
515
492
465
440
478
504
475
471
473
500
540
592
629
618
564
506
454
407
385
375
395
446
506
569
607
580
546
544
519
510
522
543
520
476
468
450
415
393
402
436
493
546
574
539
477
440
440
476
532
641
734
801
844
829
771
675
539
415
340
321
332
373
394
384
386
380
381
390
407
428
450
464
469
478
502
525
549
577
571
520
471
460
489
525
505
471
459
427
384
369
375
423
513
575
591
620
600
556
510
495
506
507
501
508
532
552
552
513
496
531
548
574
581
566
537
530
543
568
596
617
622
598
554
519
516
528
543
540
528
542
541
537
572
580
569
562
592
669
681
677
666
627
587
529
476
471
512
565
627
649
617
533
493
506
517
493
467
457
451
466
492
496
495
530
550
546
549
559
560
561
561
554
528
516
522
478
436
418
455
509
498
444
386
357
377
430
499
534
530
555
593
637
653
607
511
446
421
425
440
448
434
453
504
564
593
549
492
452
456
516
573
629
660
626
569
529
480
427
408
410
410
439
501
529
530
538
561
606
676
709
641
572
541
542
581
612
604
579
536
483
473
455
430
456
520
592
598
604
601
592
639
685
672
589
531
509
537
599
651
625
569
523
488
511
519
544
572
586
522
452
461
490
494
459
430
442
456
499
515
519
510
502
474
461
517
597
629
595
478
321
248
340
532
604
559
501
440
411
424
469
512
530
460
315
174
129
171
260
386
518
623
662
643
644
588
446
333
226
120
64
35
19
11
7
4
3
2
2
1
1
1
1
1
1
1
1
1
1
1
1
31
110
151
200
258
327
364
404
432
434
486
582
627
676
738
778
781
828
912
957
938
898
861
887
928
948
928
831
742
712
763
860
934
985
1023
1023
1023
1023
1023
1023
1023
1023
1023
1023
986
915
891
930
966
1012
1023
1023
1023
1023
1023
1023
1023
1023
1023
1023
1023
1023
1023
1023
1023
1023
1023
1023
1023
1023
1023
972
967
1001
1023
1023
1023
1023
1023
1023
1023
1023
1023
963
929
894
870
876
875
876
878
874
837
828
862
922
974
972
890
788
731
704
751
839
921
951
919
837
707
595
534
475
425
449
508
560
601
619
623
596
560
544
546
554
556
551
558
522
485
490
488
501
514
495
483
516
533
508
429
340
298
313
357
411
451
454
476
481
443
419
392
375
313
259
275
292
295
308
337
325
286
285
331
426
507
519
420
308
266
286
309
322
337
328
327
382
453
504
489
442
389
325
304
334
357
361
387
388
350
294
269
283
303
318
327
347
324
271
247
247
275
307
325
356
364
362
366
388
419
423
425
405
399
435
485
514
532
510
424
348
340
351
348
312
263
246
261
292
317
314
347
432
483
467
402
357
362
379
419
518
620
686
726
766
802
782
620
401
273
218
219
268
321
324
290
305
330
335
344
350
352
364
374
417
451
435
401
362
355
431
515
582
617
581
495
422
344
270
275
357
490
571
575
543
497
476
463
425
393
399
408
414
474
506
486
429
374
333
333
339
355
383
411
439
476
498
506
509
476
440
413
401
420
443
452
430
401
407
432
445
460
462
480
505
524
483
410
375
379
416
436
418
395
376
377
433
487
487
440
408
434
475
481
461
470
507
519
477
395
351
366
399
442
445
476
538
559
532
440
367
365
398
408
404
389
365
340
346
383
414
440
446
454
494
531
502
424
317
268
298
343
385
426
433
413
423
440
456
459
453
442
482
538
529
477
427
433
456
479
462
421
413
427
449
497
526
542
564
533
489
476
472
445
384
357
390
464
555
614
636
619
575
542
483
467
462
440
438
454
463
484
508
554
564
533
505
506
550
594
606
591
541
492
480
511
524
494
469
498
552
619
617
544
479
439
433
444
473
537
587
568
514
490
505
500
472
472
474
489
501
514
517
473
481
528
553
563
550
521
524
559
575
597
585
547
498
461
443
436
483
531
553
559
564
592
591
531
439
371
332
347
403
466
522
570
571
549
552
570
576
576
554
522
509
517
529
545
563
543
482
470
473
477
491
487
476
489
536
573
604
622
612
560
489
463
479
488
462
433
463
502
540
603
701
821
890
880
826
777
721
651
560
479
406
356
346
380
421
423
416
428
441
419
410
451
482
496
517
549
577
529
467
467
487
483
448
431
464
473
490
524
534
519
501
492
491
474
485
542
590
592
521
478
482
527
558
544
515
505
531
577
587
573
570
575
580
563
564
561
503
478
496
475
463
495
581
641
671
606
541
529
525
530
536
530
519
512
510
508
510
497
510
546
552
543
531
562
593
584
528
487
476
514
553
558
560
589
588
578
587
570
535
512
505
501
507
546
572
572
527
490
509
542
524
491
461
426
444
456
489
510
506
518
513
533
553
538
516
516
539
540
481
399
396
403
393
402
437
490
514
520
526
546
558
549
524
486
470
485
513
497
484
527
553
543
491
468
488
501
533
575
608
600
529
433
401
435
476
459
424
417
449
484
503
499
508
548
578
595
603
584
532
493
493
509
539
560
573
536
457
400
392
404
419
438
463
501
531
546
549
556
532
491
478
490
498
501
529
548
545
557
550
535
528
510
496
488
505
492
476
463
475
494
516
521
508
481
454
516
543
474
414
416
460
516
539
484
453
466
486
487
473
477
498
533
568
558
533
504
469
490
527
524
491
481
529
528
489
513
548
599
598
517
471
467
477
479
476
433
401
404
411
404
423
469
513
545
569
527
447
407
444
508
546
582
616
619
590
511
433
406
422
445
462
480
479
471
504
521
519
536
532
520
510
474
470
501
537
567
571
558
555
538
496
475
501
554
594
635
609
510
406
385
424
464
467
447
458
501
521
495
467
469
544
597
624
639
634
593
569
575
543
478
422
410
458
517
536
541
519
480
474
490
492
501
536
530
508
521
533
522
522
527
536
522
470
431
433
466
518
572
614
676
740
809
869
882
842
780
685
575
463
381
314
299
347
411
493
529
500
454
409
387
373
404
466
527
551
537
503
449
411
431
452
455
431
441
470
502
534
569
591
579
546
527
498
471
454
423
453
509
556
559
541
521
500
503
531
560
557
524
509
514
519
531
532
525
550
594
584
526
514
503
481
449
459
490
507
504
488
545
628
634
588
562
549
522
499
479
486
546
572
550
571
633
654
613
570
535
512
496
483
476
483
518
527
511
495
504
511
505
495
460
449
494
568
614
578
512
476
494
498
492
485
471
460
459
462
484
540
572
563
521
470
447
485
520
554
555
532
466
401
380
376
394
439
500
505
484
472
489
521
527
493
441
404
425
477
508
517
525
540
552
524
510
487
459
448
469
495
518
529
527
551
573
568
536
498
480
523
563
544
480
434
428
449
469
478
483
483
497
518
529
508
483
478
461
439
442
467
455
447
466
493
510
515
500
479
485
491
477
479
506
550
582
621
607
528
460
427
433
467
510
487
454
456
492
504
465
418
387
372
422
488
562
579
531
489
474
453
418
390
366
414
496
559
549
496
455
482
524
523
510
504
492
493
514
517
487
463
477
547
606
602
526
458
423
439
484
517
558
625
650
608
543
462
373
331
325
338
410
501
580
672
725
695
658
632
616
590
565
549
559
592
615
640
690
721
703
653
591
549
518
465
432
466
502
506
531
565
604
618
557
504
485
493
493
515
525
539
576
599
600
579
541
475
425
433
512
591
595
580
529
455
399
375
404
459
497
539
571
579
561
517
436
398
403
424
467
530
557
531
514
544
567
524
467
456
455
454
492
575
632
592
539
492
441
412
428
447
466
447
442
459
465
459
448
431
389
365
376
412
477
488
483
487
514
565
631
653
628
578
514
513
597
683
779
840
817
727
611
501
404
332
315
319
298
306
381
441
451
417
386
396
413
403
415
482
540
617
666
663
574
425
312
294
332
394
441
484
510
516
498
505
518
507
498
498
484
475
508
566
628
640
598
545
498
490
466
449
475
504
565
625
672
676
612
471
398
396
416
464
505
535
565
554
491
452
440
485
540
573
577
529
498
528
540
525
525
560
590
615
612
539
479
464
491
550
577
567
525
490
466
460
478
521
545
542
524
531
549
547
539
547
545
548
525
457
401
397
413
425
438
466
477
446
466
491
477
487
516
549
573
567
520
449
368
318
314
351
401
439
472
507
529
526
516
501
504
536
580
598
519
435
408
405
430
455
467
471
475
528
538
529
503
454
424
450
484
542
579
538
466
392
342
356
415
485
525
536
569
588
574
544
495
454
413
394
418
475
556
579
558
531
483
450
464
527
575
580
600
595
531
488
486
498
495
514
521
499
461
450
442
416
414
438
478
505
509
532
547
531
504
469
424
401
416
447
471
496
541
581
607
569
459
379
382
448
504
524
512
523
530
488
434
413
428
448
474
486
489
502
491
488
493
466
458
492
513
507
530
540
539
548
526
481
476
495
527
567
579
556
510
470
455
440
433
446
454
467
472
507
544
534
527
536
526
475
463
494
536
551
533
506
504
532
557
585
570
514
417
350
353
423
500
536
541
512
506
514
515
480
450
464
507
520
493
476
490
522
544
539
485
459
494
527
547
529
478
422
404
444
487
511
503
500
526
573
575
565
562
530
478
436
420
456
483
491
499
504
530
571
578
566
508
473
480
481
462
473
492
490
462
479
534
572
582
587
570
522
510
519
504
472
413
387
414
438
443
438
436
429
444
462
497
558
658
769
828
866
877
866
784
707
598
426
321
276
265
287
344
424
470
496
511
513
528
552
542
517
522
475
417
381
399
440
493
514
502
457
402
406
472
547
598
597
599
596
516
452
413
410
437
456
456
471
506
514
519
515
565
618
623
618
581
516
451
409
428
472
510
525
510
500
512
555
554
513
481
478
462
465
500
539
574
635
637
535
409
372
440
550
610
616
605
559
515
495
476
443
437
469
535
597
580
516
489
532
584
586
573
550
533
548
602
620
625
629
610
572
514
473
441
389
366
375
408
477
532
515
465
456
455
469
490
477
462
457
471
502
540
539
524
501
476
474
464
466
486
494
497
497
484
487
468
469
469
452
451
448
432
430
452
502
548
581
603
569
533
496
453
423
412
425
469
520
541
527
514
541
561
558
543
504
481
484
493
505
537
547
518
518
524
525
531
519
481
453
446
467
510
519
529
543
545
510
461
446
452
472
494
522
535
534
532
555
580
575
542
492
469
472
474
500
548
558
558
545
498
453
438
456
493
479
455
459
463
487
533
562
573
566
524
498
476
499
536
543
487
446
459
506
545
555
544
537
541
527
516
496
487
486
531
543
539
529
520
538
540
507
497
518
528
500
438
411
439
475
496
524
573
609
606
565
528
506
500
500
502
488
486
471
444
484
575
667
720
669
561
488
466
459
451
433
446
493
522
509
495
483
465
463
508
524
519
538
552
543
507
477
485
497
519
542
552
562
575
574
572
573
583
570
534
499
459
447
469
503
527
521
522
534
543
532
510
482
481
483
505
552
580
618
627
560
484
457
469
475
474
499
516
486
467
474
470
463
479
504
545
578
535
468
455
459
482
520
559
600
673
754
797
838
919
937
843
703
522
373
274
231
244
293
332
345
337
361
403
441
469
471
467
494
555
597
582
540
500
511
524
529
520
476
455
473
518
550
534
475
440
450
468
534
595
624
616
585
528
445
440
483
520
534
528
540
521
514
521
517
491
465
493
538
550
526
531
564
564
558
569
557
533
529
536
525
490
477
500
531
544
522
500
499
506
540
562
550
530
529
553
597
621
611
561
520
526
555
572
547
510
533
549
546
539
522
531
579
602
592
550
501
488
530
519
496
496
514
521
493
456
472
518
534
518
511
505
509
527
515
476
453
444
435
461
480
485
485
490
490
480
450
435
414
395
406
449
491
543
593
602
565
480
428
421
454
499
515
494
503
530
532
505
508
521
540
549
538
522
510
490
450
420
429
476
505
496
476
466
489
512
472
464
488
513
549
586
594
548
491
476
467
485
488
481
492
500
517
535
554
544
510
483
485
517
551
580
583
545
509
498
534
574
607
610
571
486
448
448
428
429
462
481
506
542
538
522
491
491
505
472
459
482
514
575
608
590
533
495
492
507
533
543
546
534
532
536
525
495
476
492
529
562
570
553
528
521
500
453
459
514
524
514
527
535
529
525
537
540
476
418
421
449
489
508
561
607
595
520
434
402
455
518
545
559
603
628
618
569
548
523
517
512
485
474
486
505
519
488
436
429
460
491
509
535
539
530
537
547
567
572
552
540
509
498
527
542
501
460
447
470
532
618
657
649
590
528
509
521
534
542
568
590
593
560
523
493
471
448
448
484
543
585
589
578
550
490
447
427
419
446
480
534
559
537
498
463
448
469
500
568
707
818
857
820
809
813
765
672
538
396
341
346
358
364
386
417
458
506
543
522
487
489
477
447
433
424
407
428
470
522
573
572
520
457
451
501
549
542
500
503
544
584
605
577
519
433
411
449
492
536
568
564
525
515
555
597
593
585
586
556
521
513
483
477
479
491
515
531
529
513
520
535
561
603
600
516
410
416
491
543
551
558
564
573
543
502
503
541
558
554
565
578
585
562
539
565
579
562
550
532
496
508
529
550
581
578
552
527
515
509
509
514
507
502
527
542
543
540
525
495
458
425
442
495
567
601
580
512
434
421
414
417
415
429
457
506
556
543
517
503
479
458
433
424
412
406
450
530
596
623
602
538
453
389
367
376
382
413
463
473
474
510
531
544
524
500
509
561
620
632
595
522
436
383
371
415
481
520
512
496
491
489
504
532
543
559
583
598
600
561
508
495
484
439
419
411
414
444
482
520
511
501
498
495
476
452
459
532
626
657
605
537
507
503
499
477
468
526
563
572
568
550
544
541
544
504
444
418
414
395
407
465
538
577
570
524
486
500
515
506
536
541
512
482
480
497
499
483
486
505
514
529
540
532
523
520
552
595
580
543
528
509
501
520
529
512
491
456
447
474
512
549
571
553
527
515
492
494
487
458
438
460
489
488
458
475
505
512
526
545
536
521
508
521
546
567
591
574
510
466
468
474
461
493
536
604
692
691
617
510
445
423
446
494
540
576
559
529
523
507
498
484
464
462
494
518
495
497
513
519
507
473
447
431
439
488
526
558
589
547
479
461
510
585
624
641
648
671
756
866
917
875
751
622
489
350
297
300
318
342
361
377
393
416
443
485
524
535
528
495
466
458
469
491
506
498
499
547
593
606
537
470
411
413
470
555
583
564
523
497
505
526
560
566
566
544
510
505
516
482
463
507
535
545
546
554
570
565
575
556
509
480
473
460
464
468
466
442
445
529
659
752
731
638
574
507
456
466
503
518
515
498
497
499
516
542
550
534
531
545
547
566
583
564
538
494
480
505
547
576
597
584
536
504
463
486
552
571
561
483
427
436
487
499
487
446
405
404
430
451
460
472
468
459
443
471
524
560
562
531
506
509
509
479
464
467
483
484
454
431
441
471
484
503
536
555
539
479
408
368
385
413
447
486
477
425
391
388
421
447
471
480
502
533
534
499
468
445
446
483
535
592
621
587
500
458
449
431
432
465
497
474
432
428
460
484
517
531
561
588
591
538
503
524
531
531
500
442
399
412
475
542
610
632
606
542
489
464
448
432
451
473
498
514
493
463
423
391
410
442
501
559
557
547
585
609
605
580
563
570
593
629
616
554
494
465
441
435
455
487
499
504
523
516
509
522
548
549
546
518
475
427
412
424
454
463
450
432
434
465
514
565
593
581
548
516
513
535
517
481
477
524
559
568
601
623
615
596
558
543
543
550
551
553
550
548
572
596
567
503
421
358
342
372
409
454
522
552
499
455
466
470
465
456
481
535
581
617
618
584
553
492
451
463
524
619
731
839
909
931
895
820
743
650
548
433
322
231
169
194
297
348
370
380
387
420
464
494
494
503
522
517
522
542
519
515
562
596
585
560
544
508
491
467
460
467
477
502
491
502
500
476
492
534
567
577
554
516
497
510
504
484
458
452
443
456
497
556
603
602
615
619
570
532
539
532
542
560
564
521
482
466
498
587
658
662
620
557
508
491
496
511
514
516
528
553
559
570
568
535
522
556
566
578
593
616
624
633
630
599
552
523
537
563
574
567
537
544
553
519
492
499
520
519
504
499
516
475
425
394
392
415
422
451
488
531
552
548
519
489
467
448
481
566
617
628
586
482
397
398
420
437
450
454
457
482
510
501
456
408
386
392
470
551
577
558
528
463
408
377
364
393
428
475
518
558
595
579
544
529
551
584
589
581
559
543
542
531
556
551
519
482
428
414
423
442
427
442
487
501
513
536
527
516
497
466
443
463
468
459
435
418
415
419
465
531
566
593
624
656
636
551
445
407
399
403
435
476
516
530
529
537
534
520
555
577
559
521
472
425
400
431
485
514
537
570
550
493
444
420
408
438
482
528
580
607
554
463
403
411
456
494
507
522
538
544
541
520
506
493
446
395
402
431
479
522
550
536
493
482
520
523
517
490
430
412
458
536
556
527
495
501
525
548
505
412
383
424
470
512
558
565
537
483
441
448
507
588
616
596
566
613
707
802
827
800
759
686
598
486
358
299
268
277
311
312
305
314
341
394
461
507
528
546
524
508
449
393
400
428
439
463
530
580
589
572
554
535
531
553
562
505
462
451
456
473
503
549
582
607
589
541
510
507
522
567
601
561
512
499
487
462
444
455
495
497
490
491
497
525
518
495
484
519
563
575
582
598
598
594
558
516
481
464
507
595
660
653
584
496
484
524
574
592
608
604
567
506
487
503
537
537
541
553
563
566
533
519
569
611
632
605
556
519
488
486
519
551
570
582
551
495
461
447
451
436
432
475
529
554
514
492
488
491
457
390
377
389
457
506
522
550
553
549
528
534
507
455
427
436
457
466
460
462
468
453
462
475
519
550
561
548
530
503
457
456
512
546
528
501
524
579
607
606
579
505
497
537
560
549
509
472
468
451
443
481
538
544
528
517
540
554
542
541
536
531
535
519
501
518
534
510
508
539
588
613
590
547
484
404
398
468
534
588
613
630
621
587
558
514
480
453
441
442
449
444
440
461
490
528
546
539
531
547
554
539
509
490
451
464
547
599
587
555
572
631
661
620
544
480
463
449
428
422
436
455
496
520
524
533
559
596
607
609
613
606
595
553
485
438
434
447
476
506
492
494
541
598
642
620
529
432
376
384
438
494
548
556
543
553
574
568
553
549
572
631
714
764
798
793
767
707
648
610
533
432
345
304
313
350
379
437
476
488
502
507
507
540
546
544
548
513
474
460
468
459
428
427
458
472
439
437
464
479
478
470
470
505
533
549
576
601
614
619
582
499
430
414
427
456
523
602
617
573
516
488
480
511
570
584
528
457
425
442
456
442
436
457
485
513
533
527
517
523
530
519
526
533
517
537
569
567
573
587
583
572
561
562
561
534
540
564
552
527
498
451
396
421
487
545
580
589
598
582
533
487
495
538
559
552
518
479
455
444
482
547
581
556
506
507
519
512
481
452
472
461
390
336
338
384
434
479
506
498
473
466
462
462
470
471
495
521
520
496
481
480
457
474
540
602
592
552
495
445
395
365
374
421
463
473
483
506
559
572
546
526
483
431
419
447
462
445
456
472
481
534
594
578
536
484
457
471
501
540
594
606
569
515
439
414
425
420
434
479
508
508
502
486
465
473
461
454
495
527
520
509
535
549
541
524
517
539
535
509
502
514
549
573
570
545
511
478
461
456
465
468
478
501
484
436
430
477
496
493
504
510
511
515
516
514
508
505
500
513
510
474
482
517
532
550
560
550
564
574
557
519
502
521
547
547
525
482
491
493
453
408
413
428
426
447
481
497
472
466
496
510
486
447
438
445
450
470
513
583
654
721
774
795
771
756
748
687
575
482
443
430
402
337
338
389
428
414
415
427
438
432
429
452
486
505
513
519
530
523
490
456
419
403
430
463
505
521
532
519
485
475
466
508
567
560
545
561
564
544
527
521
534
521
473
438
448
464
512
568
579
544
488
460
466
503
537
544
528
513
515
554
585
584
558
528
478
405
351
377
454
518
575
599
558
504
478
522
602
643
639
599
521
447
400
391
444
472
500
550
610
606
556
527
515
464
427
426
438
485
539
554
577
576
544
518
516
512
504
482
460
453
445
431
451
476
458
446
475
489
469
486
503
497
468
449
456
481
503
512
469
397
359
368
403
448
484
494
461
451
463
486
475
443
447
496
552
567
542
509
508
493
456
423
441
494
503
509
532
571
587
606
620
595
567
557
564
579
568
538
524
530
532
526
519
517
535
553
579
591
577
563
554
533
523
511
481
481
496
500
499
492
487
481
518
578
590
570
534
497
471
475
503
541
566
589
597
529
465
437
429
424
432
475
512
535
532
523
542
562
555
531
525
516
501
489
486
534
573
584
558
520
504
500
489
497
555
602
601
590
586
585
542
469
410
365
352
385
433
474
499
490
469
454
456
488
504
509
524
516
479
465
476
488
523
576
586
597
603
564
478
407
414
468
517
541
551
522
450
395
375
406
445
472
512
534
552
553
531
495
462
457
454
464
483
502
517
508
469
437
458
458
445
455
478
483
474
485
540
607
664
720
774
808
828
813
782
705
584
463
391
345
337
366
388
412
455
502
547
567
526
439
410
462
531
562
560
546
510
477
462
470
481
495
521
541
532
515
493
478
471
460
454
461
480
507
508
474
436
417
441
475
491
506
553
578
563
534
528
526
536
574
590
553
506
530
553
574
566
526
468
401
362
370
416
449
472
504
551
579
583
567
534
526
512
494
509
522
542
557
561
560
603
643
621
565
497
462
485
498
529
563
592
569
507
480
501
514
513
513
506
487
481
450
418
445
471
489
524
543
543
555
556
540
536
527
498
494
489
489
524
543
522
478
467
476
477
479
492
495
477
467
469
462
464
452
459
468
499
553
577
563
558
568
564
525
494
497
509
491
462
439
430
435
470
526
556
534
504
463
470
503
494
488
486
472
472
477
474
480
475
480
481
515
562
601
588
554
509
481
489
505
516
514
518
529
530
535
517
497
507
532
531
488
476
513
530
513
451
390
380
415
447
457
459
459
475
500
507
509
510
523
541
562
594
617
651
626
551
485
464
464
471
486
530
564
540
487
463
460
456
480
496
484
464
459
466
448
432
460
525
581
599
591
570
542
548
549
540
527
509
474
482
524
542
548
559
533
499
481
489
476
459
454
444
436
453
463
462
492
498
483
510
541
524
502
501
527
570
575
576
577
549
511
484
456
446
468
492
500
497
482
497
522
515
522
541
523
497
461
407
397
442
479
527
561
566
558
541
513
498
463
451
499
595
649
631
599
583
568
572
571
540
487
432
423
456
506
546
561
545
512
473
466
472
486
494
477
446
429
440
474
526
534
497
465
466
497
553
619
691
765
822
849
803
767
739
672
568
459
391
347
317
324
345
369
405
449
484
509
525
508
482
470
472
476
489
488
480
486
479
493
537
551
526
518
554
576
566
569
590
597
549
511
493
482
480
497
531
562
548
503
495
516
518
491
449
406
372
379
399
436
460
428
444
497
526
542
532
509
529
573
583
556
551
566
572
580
546
523
523
495
483
525
561
558
565
574
558
546
563
556
551
522
510
532
576
563
527
522
510
480
470
482
510
532
539
549
556
548
548
538
504
484
467
476
486
480
475
497
538
575
586
578
570
533
485
489
504
493
484
477
488
539
568
564
547
531
464
381
373
437
464
445
416
388
382
417
470
489
498
497
464
464
499
558
588
567
507
460
441
469
519
550
573
593
602
588
531
480
434
401
421
458
465
450
443
458
481
493
484
468
497
537
531
523
535
561
549
522
507
477
463
504
537
523
504
495
533
571
540
492
496
530
530
515
505
484
448
429
432
450
473
487
512
536
526
507
538
576
573
533
519
519
524
540
536
513
474
452
461
461
492
557
588
598
627
628
609
600
548
509
500
496
502
507
505
518
534
510
486
478
488
534
541
532
516
527
565
575
518
429
424
466
452
468
583
666
649
570
504
480
502
527
543
539
530
478
415
379
436
533
579
581
559
533
495
481
481
464
484
552
614
618
574
510
471
479
517
529
554
564
553
529
531
506
468
491
532
547
537
478
453
472
500
529
521
525
526
507
508
498
475
457
466
512
542
544
495
444
430
488
559
601
608
588
589
561
520
525
527
531
538
543
562
567
537
533
546
536
528
527
499
468
460
478
493
503
491
469
462
462
449
461
510
563
577
568
584
575
489
417
408
436
488
573
671
781
872
874
830
784
712
622
555
501
426
393
408
421
444
459
456
463
466
495
519
519
524
542
555
558
520
446
395
380
386
397
435
514
557
555
606
629
609
601
568
479
422
436
510
539
530
504
460
463
515
561
580
597
574
542
536
520
489
441
427
468
515
522
504
501
528
568
566
541
505
484
487
534
581
579
552
497
463
471
509
554
571
581
583
574
527
484
479
488
515
505
464
470
537
620
607
550
522
530
529
466
417
432
487
537
559
553
540
526
534
562
570
556
539
546
571
534
474
435
412
420
469
489
492
512
511
504
487
490
551
578
583
534
452
415
437
462
447
429
418
436
498
574
575
535
524
535
526
500
474
461
442
446
471
508
555
579
555
508
475
433
447
526
606
590
506
445
409
409
430
468
487
490
491
487
467
457
478
486
490
519
529
529
571
632
664
631
548
484
455
457
465
456
444
456
490
529
580
615
597
527
465
448
463
485
498
518
547
574
588
600
531
424
339
333
384
439
473
511
519
490
477
471
487
511
511
474
449
499
590
626
601
558
532
521
510
470
446
456
519
587
604
568
513
452
445
481
499
509
508
504
493
443
447
502
549
528
465
444
496
560
579
548
526
533
523
511
512
530
561
580
588
578
583
531
456
443
469
484
479
460
477
509
531
560
575
579
546
491
464
462
474
495
514
524
543
570
558
499
463
470
506
525
553
610
655
618
521
423
375
396
462
493
518
535
537
506
480
505
555
610
624
566
496
469
481
466
453
483
533
539
513
497
488
501
509
512
527
551
553
542
530
514
530
548
549
550
534
539
555
548
545
534
481
428
404
422
428
452
508
504
455
433
465
569
635
660
675
688
675
605
516
447
421
447
508
560
597
623
624
594
497
424
415
407
424
454
488
478
472
489
507
511
503
520
552
576
576
562
576
654
763
835
847
820
721
620
556
522
470
440
429
425
440
456
466
475
485
526
547
522
481
447
438
439
440
433
424
446
497
516
507
492
488
505
522
525
488
425
395
450
502
524
598
651
639
602
518
429
420
490
552
569
560
537
517
518
480
441
419
416
446
480
502
522
541
546
545
533
512
508
533
585
620
590
557
538
556
585
584
593
590
570
521
491
516
544
561
567
571
575
542
505
514
536
543
525
479
451
448
464
530
567
548
544
552
537
521
524
515
498
472
459
458
483
507
511
527
533
514
492
479
477
467
471
455
397
361
367
381
379
386
458
490
506
522
489
457
472
481
491
500
477
449
474
530
583
594
529
466
450
444
432
420
430
472
496
490
467
447
447
447
464
501
519
489
480
501
510
474
451
460
448
448
458
491
519
524
519
530
564
569
521
501
524
535
527
499
474
465
480
508
513
489
452
440
470
517
533
519
443
391
391
386
356
330
348
397
447
464
471
478
485
490
501
518
513
528
567
569
547
492
457
449
472
528
569
591
541
444
350
310
308
360
425
515
612
653
610
538
473
436
420
435
430
427
434
460
484
489
504
532
549
515
522
553
534
517
532
532
519
525
535
527
493
464
428
409
411
457
509
549
586
569
542
538
519
488
458
462
472
486
503
499
487
495
529
558
560
536
487
487
514
508
475
454
462
494
515
538
537
532
540
544
511
497
512
543
565
556
533
505
489
498
520
542
524
498
518
555
573
565
557
529
491
475
450
441
449
464
489
542
580
601
622
609
548
477
436
412
449
510
550
555
518
484
463
481
527
551
551
537
524
513
497
519
569
594
565
530
495
495
487
452
452
468
481
515
533
517
517
503
490
486
495
542
582
647
725
819
864
842
786
750
661
536
436
383
361
370
368
355
356
399
444
501
524
503
507
486
492
533
539
503
482
459
430
452
508
549
590
628
584
519
463
434
471
517
525
524
503
494
497
506
512
531
567
570
572
543
514
523
522
513
522
548
576
579
531
500
495
480
471
476
473
469
494
552
606
622
603
583
588
572
544
530
516
507
535
553
546
517
520
547
579
598
568
532
543
540
546
574
552
538
538
538
535
554
566
568
562
546
560
593
595
541
490
473
486
510
551
549
526
502
496
491
481
467
466
517
578
563
510
470
470
488
467
450
445
445
454
482
514
532
535
532
528
549
574
540
487
436
432
464
507
501
456
427
444
488
508
476
421
405
417
447
480
515
538
551
549
541
558
554
551
523
479
442
448
504
555
550
519
498
521
570
606
564
527
532
527
518
511
504
489
477
488
510
515
523
537
539
523
504
496
541
589
605
587
569
525
510
520
528
530
561
597
613
574
525
532
545
580
613
626
624
607
576
552
567
553
476
425
410
393
388
418
470
533
579
592
541
441
398
435
525
606
622
605
565
520
520
526
528
521
501
479
461
499
534
528
486
419
385
389
413
449
477
495
520
537
572
632
608
506
434
430
479
477
467
473
467
498
518
487
481
517
521
491
475
488
504
505
525
542
539
494
486
522
538
523
512
540
566
568
549
523
506
498
483
441
435
457
510
569
544
447
367
378
428
437
460
506
523
543
551
544
535
528
525
532
524
533
582
646
658
607
568
563
555
539
515
489
518
544
536
516
502
481
469
484
487
487
499
535
574
609
576
511
455
443
447
477
504
511
530
531
537
573
577
559
540
552
619
697
769
815
858
884
855
812
747
637
564
522
492
488
483
436
374
355
378
430
505
541
554
524
532
561
529
498
495
532
579
638
653
613
559
540
539
552
545
512
495
492
501
497
512
568
596
576
545
530
535
531
553
581
587
538
477
444
440
472
502
501
505
545
627
689
672
622
559
514
523
548
548
529
522
550
572
574
565
579
580
535
476
452
480
528
565
597
610
581
578
573
560
543
491
447
418
415
466
558
638
649
592
512
478
503
544
569
600
603
578
562
562
574
549
558
585
592
553
483
440
444
453
459
442
431
450
492
511
464
410
375
372
402
440
439
413
392
399
413
424
442
455
468
523
545
531
502
487
518
552
572
538
469
402
366
396
462
501
542
563
522
476
440
409
423
450
458
477
485
482
468
443
462
489
511
514
495
476
480
534
557
515
484
484
489
494
475
443
464
476
467
441
442
482
513
537
553
553
544
536
526
502
486
474
464
464
502
540
503
433
413
391
359
363
425
502
545
566
572
552
526
498
516
548
556
549
517
481
481
489
483
483
476
483
502
505
508
491
460
436
452
449
418
427
454
477
489
479
507
570
603
585
551
522
520
542
548
523
495
451
405
405
417
424
466
508
520
516
532
540
559
564
536
497
449
436
489
537
531
505
486
494
481
430
373
368
454
576
669
739
763
712
614
516
444
373
356
391
465
492
484
506
510
484
448
468
494
476
470
465
471
490
534
610
661
631
574
530
526
562
625
666
645
569
493
462
458
496
494
445
463
512
532
561
576
553
495
448
422
432
442
454
499
575
652
725
762
786
806
799
756
673
640
606
504
419
383
397
450
485
500
501
503
500
426
353
356
380
402
402
401
442
492
508
509
494
486
472
463
477
484
481
476
499
512
500
517
533
515
475
445
440
442
430
437
422
416
471
550
583
551
507
508
496
463
426
383
374
417
455
480
512
528
533
521
493
510
526
507
494
491
464
496
529
510
476
488
497
506
485
451
456
517
579
624
632
589
521
518
530
488
431
382
397
425
472
530
541
530
518
528
526
513
470
416
430
469
481
494
492
466
450
464
482
500
524
509
481
446
451
501
525
517
484
422
343
298
305
351
437
495
515
520
497
458
403
375
364
388
453
512
510
452
423
448
474
504
521
534
533
471
402
391
408
428
448
454
452
453
474
515
576
618
633
576
461
413
412
384
387
385
384
418
467
489
483
483
499
515
523
486
454
457
471
499
519
511
478
461
473
472
486
516
540
537
510
511
496
478
435
387
387
456
531
561
565
526
452
413
426
445
466
489
510
491
523
601
606
541
479
460
467
479
483
462
455
472
471
490
499
501
521
529
515
499
492
511
515
470
436
428
454
491
504
513
505
501
519
546
592
605
560
528
491
459
437
418
393
406
464
515
507
476
476
523
557
533
516
515
527
570
591
545
477
442
410
390
393
412
423
415
430
456
455
479
507
506
508
532
574
595
541
500
519
524
505
455
415
426
468
524
559
561
543
488
461
493
507
519
542
579
584
500
412
404
438
430
405
424
467
498
568
615
618
606
591
562
518
472
421
400
402
407
429
486
551
579
609
664
732
765
764
747
714
663
608
565
528
494
477
486
489
427
381
359
360
388
425
471
499
516
505
477
465
421
400
417
440
441
461
491
499
492
488
495
504
522
532
554
555
529
527
517
507
517
515
524
560
563
543
512
479
478
487
514
537
560
590
598
573
523
491
498
527
558
558
533
559
637
671
667
617
493
372
327
381
484
556
589
588
559
545
529
517
495
477
477
499
525
537
551
585
600
606
603
595
575
519
496
513
544
555
561
583
602
598
562
548
584
578
534
515
529
528
504
454
434
434
440
438
445
436
427
427
431
448
448
446
458
472
479
512
504
428
414
437
478
520
516
469
406
380
407
456
497
531
568
555
474
417
432
472
466
440
435
458
491
479
467
467
461
452
452
461
500
554
582
586
539
478
444
466
522
571
542
485
433
422
434
453
465
483
498
503
485
447
422
403
395
390
405
459
494
497
495
522
544
527
474
440
440
424
427
455
505
563
601
603
588
559
504
447
439
460
471
463
451
459
490
512
500
508
530
508
508
524
538
518
480
447
426
430
480
535
536
513
496
491
505
508
489
459
445
455
496
534
564
547
532
568
555
513
514
537
543
489
462
475
491
501
531
532
520
499
472
482
477
490
533
545
519
485
473
485
517
550
589
605
580
526
462
446
460
462
474
484
509
537
546
530
519
512
509
501
498
489
492
512
504
522
533
520
504
502
511
488
461
484
528
601
619
571
487
429
420
421
423
454
521
572
587
571
496
465
493
527
503
502
534
584
684
757
777
791
772
733
662
574
511
447
409
419
462
472
472
481
440
385
400
439
473
500
491
430
381
381
435
498
524
520
473
445
453
474
505
530
574
616
606
557
519
467
422
435
519
641
689
631
524
460
449
463
502
521
488
447
429
436
466
486
467
475
512
540
568
574
579
582
575
563
569
568
564
531
525
539
557
559
558
535
506
502
518
551
548
526
517
496
483
524
552
562
573
583
572
535
476
423
416
440
460
473
497
503
504
533
581
619
601
574
585
587
577
550
517
509
518
525
526
528
516
524
557
580
542
503
497
508
512
475
439
445
483
508
499
448
424
418
402
404
420
460
459
439
456
459
440
441
472
500
522
557
579
564
543
553
545
526
524
543
556
577
579
549
511
484
455
468
532
569
567
537
505
453
423
409
407
406
429
454
452
458
470
513
552
570
530
470
441
451
488
519
528
602
700
741
691
601
495
414
402
417
458
506
501
472
440
440
465
492
548
599
646
658
637
569
535
564
586
575
535
496
487
514
536
537
532
567
601
619
608
607
595
573
532
502
494
507
485
466
460
458
529
579
537
451
387
396
450
524
581
574
550
538
528
503
476
481
518
548
553
567
589
586
530
504
508
500
479
462
467
517
558
575
573
548
513
502
495
476
475
497
506
513
510
505
509
531
600
676
666
580
501
477
469
453
440
412
415
474
530
555
544
513
511
511
506
493
499
554
602
586
539
521
500
488
497
546
549
539
523
501
480
437
433
507
586
613
621
666
670
670
699
723
700
635
586
577
604
635
567
421
332
348
416
461
478
471
460
455
470
479
480
512
553
601
621
631
644
598
523
472
456
451
480
530
515
459
410
401
424
441
473
509
508
504
505
515
526
522
514
539
544
521
529
557
576
598
605
602
573
529
495
511
521
508
524
611
676
671
605
546
493
452
428
411
444
499
533
515
487
525
579
565
551
567
562
582
603
620
624
601
590
592
585
557
550
595
621
606
602
553
525
519
537
526
502
498
512
542
544
552
571
573
611
635
614
562
513
493
491
507
508
510
513
527
562
569
531
480
438
434
471
550
606
562
483
431
419
427
462
528
561
522
448
413
424
434
472
512
508
496
477
462
463
457
458
462
451
460
486
523
555
578
576
537
470
430
405
394
444
533
575
539
489
447
429
467
526
566
589
592
569
560
526
472
474
502
483
431
392
403
440
469
493
508
532
534
549
569
591
574
512
477
478
518
550
516
465
448
460
475
484
506
536
529
516
515
513
518
542
587
548
492
467
443
417
416
424
456
499
513
559
605
610
582
584
602
560
504
475
483
528
535
529
561
598
582
550
536
498
471
510
544
554
553
527
494
507
521
513
510
514
523
563
610
604
547
491
484
501
512
536
574
578
553
489
425
428
480
540
578
580
572
590
622
663
658
603
521
447
441
465
502
518
547
580
580
532
480
444
442
485
534
552
552
553
553
531
507
501
541
588
603
592
567
528
522
505
487
497
519
543
575
581
531
492
492
526
553
550
537
532
513
478
457
437
412
428
465
497
539
581
649
714
755
749
711
657
636
638
610
577
552
549
553
540
490
416
390
422
484
535
570
582
551
515
507
526
563
584
582
572
538
491
438
412
420
458
494
514
498
494
520
554
553
529
512
518
542
555
535
521
506
504
535
596
634
636
615
551
511
474
456
463
503
514
485
467
460
463
468
476
501
517
511
535
563
532
486
493
496
488
471
483
507
530
549
580
629
622
568
511
471
490
518
543
542
506
479
481
515
551
565
537
514
508
508
527
558
608
639
643
570
505
473
460
456
445
458
491
516
543
524
453
394
387
422
432
430
448
482
514
565
553
490
441
415
379
370
404
437
455
476
479
502
569
629
667
660
572
461
372
373
410
456
510
534
523
508
463
431
421
420
414
433
487
520
495
460
464
476
501
495
472
452
445
448
455
445
480
563
595
559
512
466
407
376
409
452
492
512
511
486
454
464
527
566
569
556
532
545
547
540
536
534
483
418
384
386
436
523
592
578
526
479
453
433
408
393
400
395
434
497
523
528
512
510
551
608
611
574
543
527
522
514
479
427
440
506
538
534
504
499
482
450
393
401
456
532
558
478
413
421
481
514
511
478
464
461
462
516
552
534
528
524
515
529
557
551
537
550
547
528
488
462
443
437
433
474
551
610
612
571
515
469
442
453
467
487
492
509
493
494
529
586
617
611
538
469
464
479
461
464
485
496
518
531
553
553
533
506
500
510
502
485
484
503
494
509
556
520
445
392
410
441
435
469
543
597
662
706
754
790
794
747
665
571
487
411
359
360
387
369
344
359
363
371
439
519
540
512
460
422
418
472
558
598
598
597
593
580
565
557
564
581
578
569
530
507
516
549
590
637
626
557
513
466
427
411
426
444
467
475
473
510
520
495
496
517
545
588
626
616
555
481
451
469
522
558
569
559
558
595
623
612
551
475
449
434
430
442
442
445
497
558
567
556
565
563
498
445
424
407
445
444
395
374
349
319
315
310
311
318
362
371
323
264
249
267
246
216
225
257
285
299
297
309
307
303
278
239
241
276
321
363
349
324
313
252
224
276
297
288
311
327
304
267
286
363
419
427
432
465
466
469
473
465
474
508
545
573
547
490
462
499
565
613
663
695
703
746
833
907
880
797
736
702
681
729
802
838
842
810
755
711
667
666
673
677
681
679
646
625
644
665
697
721
689
615
522
479
508
581
631
662
676
714
774
816
772
641
521
451
440
477
507
510
509
505
501
510
562
582
557
548
559
553
519
506
547
612
628
584
560
561
546
547
532
460
347
266
239
213
156
109
107
130
162
187
225
239
242
241
224
242
269
239
187
119
84
84
163
309
425
449
346
238
129
71
84
132
186
260
302
344
381
391
353
313
303
293
272
282
284
288
381
503
584
635
626
562
494
428
398
372
389
456
534
541
537
531
508
464
439
437
459
453
415
402
435
513
564
575
590
624
657
692
744
772
793
829
816
810
856
928
1006
1023
1023
1023
1023
991
895
830
794
771
740
711
679
655
644
642
656
701
741
744
745
785
817
813
763
709
659
618
600
614
665
752
896
1017
1021
853
602
438
392
401
441
519
543
522
500
463
454
501
582
649
669
643
596
536
492
464
445
413
454
591
671
614
471
312
227
232
241
249
279
303
309
328
365
412
433
411
313
206
158
190
316
434
453
406
352
349
411
477
499
513
509
482
417
363
327
308
334
382
435
454
432
399
385
395
400
428
471
490
458
423
446
462
421
352
338
382
391
371
356
357
427
466
455
434
402
391
449
496
517
496
465
470
497
498
486
486
476
411
366
361
392
432
456
441
440
486
550
610
640
631
691
787
870
872
838
771
713
714
719
676
617
611
639
708
792
794
706
619
573
606
680
728
744
707
621
594
586
566
555
535
544
557
550
543
581
674
753
781
753
661
576
541
493
444
399
373
380
412
436
447
467
501
500
474
479
464
447
402
359
392
466
517
525
493
476
507
553
526
427
344
306
361
461
520
524
467
430
470
513
522
487
414
255
139
123
150
196
293
386
422
420
392
385
405
391
334
286
283
300
333
366
376
380
376
375
392
443
466
450
429
368
344
388
437
482
516
518
519
522
526
506
451
387
383
429
449
458
438
407
385
376
373
408
427
428
458
434
421
451
502
531
511
477
460
444
472
508
512
472
434
399
402
463
499
502
492
459
465
484
476
468
499
528
534
532
558
582
590
602
632
664
663
659
646
598
574
556
514
489
509
547
563
571
603
644
681
711
699
686
679
650
653
693
723
688
635
595
514
435
420
440
485
493
488
523
567
585
537
484
498
584
670
688
658
626
602
589
580
557
519
491
483
498
550
643
678
660
646
583
432
281
232
268
359
409
384
343
337
334
335
366
400
415
419
433
433
436
451
440
418
414
414
407
434
475
529
568
573
516
456
423
430
452
509
542
508
480
505
534
505
442
400
389
400
417
453
491
513
543
544
530
513
487
504
548
574
607
607
591
545
531
559
597
626
629
620
575
511
482
488
513
542
572
575
554
565
596
631
681
648
541
429
383
425
488
518
493
465
452
464
490
501
551
597
599
611
609
647
683
675
663
684
719
717
736
761
725
655
602
561
530
494
463
441
459
490
492
480
471
490
530
590
637
633
610
593
582
602
602
623
644
653
614
583
580
567
589
628
646
621
568
529
485
451
447
461
512
585
631
654
678
673
661
654
614
530
479
458
480
509
544
600
587
533
504
527
597
640
573
426
300
294
368
429
432
415
411
369
324
335
391
435
465
437
402
427
463
464
460
463
497
526
535
512
481
470
485
546
600
616
594
567
574
621
642
653
616
510
404
375
410
446
478
508
520
536
573
570
527
479
449
445
445
469
505
537
531
500
473
454
506
600
651
655
646
625
592
570
578
580
570
567
532
482
453
427
407
394
435
488
497
510
544
581
620
676
758
835
862
849
782
687
610
549
509
502
510
524
530
544
567
585
655
687
656
615
574
526
488
466
457
486
532
598
589
569
542
489
450
446
416
425
457
477
534
614
641
581
508
503
536
598
627
587
540
529
528
522
556
584
589
593
561
522
486
491
529
543
544
554
565
582
557
479
409
394
457
543
578
553
558
557
536
560
588
590
591
594
591
569
503
451
423
418
428
439
440
441
456
462
468
459
510
600
634
612
564
518
488
476
480
510
513
446
391
435
483
544
592
594
557
490
445
440
439
452
460
475
503
502
503
474
454
475
514
516
466
404
406
469
546
597
586
535
523
524
543
553
520
467
464
517
548
539
519
483
454
455
464
482
525
559
596
577
517
466
449
468
513
570
595
560
488
425
434
461
483
502
471
442
429
431
478
500
496
515
507
488
522
557
523
477
468
474
464
466
476
462
453
463
523
563
555
492
440
429
425
411
421
467
505
519
499
459
463
486
468
466
508
587
613
570
510
464
469
487
476
486
509
541
588
619
605
550
463
410
389
413
489
557
589
560
513
466
410
404
443
483
512
532
537
529
529
510
521
536
535
509
498
487
495
507
544
552
556
586
623
643
645
626
604
526
414
365
385
421
480
516
511
514
568
604
587
555
527
498
489
496
517
532
555
560
597
664
687
659
618
592
567
539
515
511
522
545
583
606
611
594
556
526
536
547
550
535
501
487
495
508
520
508
491
511
557
595
615
634
662
698
761
821
857
792
688
593
499
413
361
361
420
451
439
451
475
495
498
487
474
483
501
522
527
521
517
518
511
507
479
469
486
526
574
577
526
487
457
460
507
550
620
633
545
439
378
385
415
462
500
518
539
566
615
601
536
500
509
502
498
474
452
476
534
572
583
576
563
551
550
541
515
488
474
472
462
434
408
422
490
530
522
472
435
411
412
452
490
531
613
663
648
591
513
481
483
533
616
688
689
633
577
540
527
527
500
468
451
419
397
378
360
395
474
517
553
587
605
623
612
570
530
543
593
633
601
513
415
372
396
421
442
436
437
457
504
563
603
617
600
601
607
623
632
635
656
685
716
725
683
593
527
463
400
428
524
631
651
607
563
532
537
557
602
607
579
570
588
660
725
702
596
440
358
378
417
457
459
447
441
421
410
409
452
482
481
451
406
394
438
494
549
584
592
506
377
261
232
291
375
408
392
357
311
250
227
256
287
301
308
349
380
357
292
225
197
180
217
311
377
416
433
422
357
272
217
236
273
244
188
149
129
147
173
196
222
191
123
81
64
90
101
67
37
53
105
153
190
250
297
297
237
155
164
225
254
235
204
250
314
345
301
180
92
48
27
21
12
7
10
61
100
130
146
133
72
50
81
160
238
275
287
268
194
124
83
73
103
137
157
178
237
306
334
343
368
377
355
315
264
222
152
131
165
207
232
242
302
383
442
448
368
252
160
118
119
147
176
181
186
204
242
260
242
198
174
183
210
229
270
325
387
455
494
498
446
384
331
264
252
266
215
159
163
230
310
336
332
333
366
440
529
585
605
643
620
511
441
457
515
566
579
562
553
529
532
594
661
668
628
553
488
499
561
610
616
640
705
749
750
728
718
735
770
792
776
759
760
787
835
903
990
1023
1023
987
922
892
862
820
811
857
936
1022
1023
1023
1023
1023
1023
1023
1023
1023
1023
1023
1023
1023
1023
1023
1023
1023
1023
1023
1023
1023
1023
1023
1023
1023
1023
1023
1023
1023
970
877
851
862
872
887
912
913
897
903
902
870
882
917
921
901
897
920
963
983
944
861
810
783
788
851
923
940
874
782
700
665
644
613
576
534
523
549
598
663
707
724
690
641
624
631
640
675
693
707
711
719
731
715
674
634
640
660
630
589
559
539
547
610
696
746
722
627
482
412
368
335
324
336
377
400
356
308
297
295
292
312
352
351
344
357
394
429
475
518
600
628
608
526
425
360
340
353
340
324
289
233
236
298
329
282
179
95
52
28
16
9
6
4
3
2
16
45
23
12
6
4
2
2
1
1
1
6
108
192
260
370
513
672
853
964
989
1005
1011
1023
1023
1023
1023
1023
1023
1023
1023
1023
1010
989
1021
1023
1023
1023
1023
1023
1023
1005
933
952
982
995
1003
1023
1023
1023
1023
1023
1023
1023
1023
1023
1023
1023
1023
1023
1023
1023
1023
1023
1023
1023
1023
1023
1023
1023
1023
1023
1023
1023
1023
1023
1023
1023
1023
1023
1023
1023
1023
1023
1023
1023
1023
1023
1023
1023
1023
1023
1023
1023
1023
1023
1023
1023
1023
1023
1023
1023
1023
1023
1023
1023
1023
1023
1023
1023
1023
1023
1023
974
924
870
819
799
838
874
874
907
1020
1023
1023
1023
1023
931
817
707
591
521
465
409
358
319
313
348
391
396
359
337
350
372
364
352
346
300
288
299
252
202
204
267
323
343
335
317
319
289
205
124
97
157
244
311
313
277
236
173
110
77
59
37
30
30
65
112
105
96
70
46
44
78
163
227
247
210
171
119
84
99
132
150
137
107
81
79
108
132
78
40
21
19
47
85
114
129
122
132
151
158
167
190
187
133
77
67
114
174
230
228
189
133
113
157
224
251
246
236
224
220
202
196
207
236
268
270
272
243
206
144
77
71
118
176
220
224
166
87
74
134
157
136
111
140
188
216
227
226
219
209
218
259
339
382
371
322
211
120
65
63
117
233
316
335
299
258
254
243
234
261
292
261
244
260
268
262
276
279
258
288
400
449
437
382
309
274
303
327
323
290
276
296
297
308
319
282
249
294
381
418
369
308
259
256
321
370
349
307
287
299
325
332
337
354
380
432
488
557
606
582
513
472
457
385
292
227
237
278
345
408
428
414
386
352
349
377
391
404
418
418
421
423
462
507
485
412
356
329
342
367
413
466
479
495
430
329
273
238
190
185
239
330
411
396
343
293
267
299
310
307
312
340
378
406
413
397
326
241
197
201
239
279
292
319
354
374
381
382
380
401
415
373
333
318
321
323
345
414
474
460
384
356
361
347
324
291
282
333
360
384
398
388
345
315
300
302
294
297
314
345
395
409
389
374
379
395
419
467
499
501
465
409
327
290
294
325
343
359
409
447
466
484
486
506
545
595
631
635
566
462
400
342
300
278
301
385
429
384
341
341
318
285
277
265
276
328
382
371
360
400
439
454
407
324
276
295
354
414
404
369
358
391
424
434
431
408
363
274
202
174
184
241
297
365
413
445
464
498
515
475
364
246
224
279
334
397
430
413
394
392
398
413
444
462
459
484
510
485
432
381
365
367
387
411
451
495
511
473
377
254
217
274
364
443
485
505
479
465
494
500
478
454
401
351
367
440
497
525
530
553
573
580
530
448
394
364
345
363
414
463
472
463
469
487
474
474
484
488
501
502
498
502
528
553
569
568
559
452
311
247
240
296
393
440
442
436
435
422
408
389
374
366
384
402
416
449
473
534
569
581
544
484
410
307
270
320
394
382
316
307
353
388
407
398
392
389
392
426
493
491
437
394
376
353
348
352
324
339
380
388
356
329
339
388
452
475
468
435
368
349
391
426
453
460
409
391
416
440
478
466
362
286
277
327
433
494
478
446
447
474
477
440
411
422
422
417
407
408
447
493
559
599
587
562
562
562
571
517
436
388
425
467
466
446
432
393
407
486
508
500
459
393
410
484
521
491
453
414
387
391
481
603
673
670
552
409
345
336
344
413
509
527
498
475
450
462
503
488
472
501
464
398
376
387
410
455
484
483
480
461
402
347
352
413
456
440
384
384
404
404
379
344
363
439
502
513
523
531
501
473
503
523
487
430
374
338
359
446
515
533
517
481
447
358
299
294
327
383
396
375
400
500
607
720
807
833
787
763
738
628
468
375
306
234
198
239
345
394
366
322
309
317
344
371
406
467
520
530
501
475
457
450
453
434
423
405
402
423
436
455
489
542
584
584
569
508
409
320
305
328
388
443
465
494
520
525
543
576
581
545
497
518
540
509
456
431
469
551
578
534
471
418
407
423
442
470
504
523
555
584
590
547
498
445
398
398
415
446
462
437
384
354
402
476
535
591
632
656
674
616
536
497
496
508
562
656
703
616
496
470
525
582
600
565
487
423
432
467
503
505
519
555
549
526
483
454
440
418
411
463
512
546
577
592
607
626
618
605
542
478
484
498
465
428
439
533
617
654
691
744
772
692
532
416
417
447
452
472
482
503
518
498
496
526
580
652
690
672
637
636
651
613
552
527
509
502
479
493
529
556
583
612
634
648
676
680
674
652
586
499
460
463
461
475
537
594
600
597
605
605
622
638
614
592
606
627
624
606
570
564
585
593
585
574
573
565
574
578
609
645
692
734
729
702
681
623
559
546
531
526
543
525
515
525
528
528
552
580
587
581
570
551
515
489
523
576
581
540
511
541
634
715
712
684
676
648
551
487
487
492
486
469
479
516
561
608
622
596
511
467
478
522
592
597
557
555
572
590
589
548
504
500
528
557
553
553
586
624
628
623
607
587
563
561
563
530
546
595
597
561
539
522
504
510
501
484
476
485
492
494
463
434
434
449
483
501
518
539
545
526
531
545
574
627
671
701
719
749
760
763
771
718
626
536
458
391
349
328
369
387
393
422
460
500
504
499
489
519
528
496
463
450
464
502
528
536
577
569
536
501
486
487
495
505
515
558
590
592
584
583
573
517
520
551
574
597
598
562
549
573
589
602
591
556
520
502
491
516
555
574
552
543
584
643
671
658
590
493
443
447
464
482
514
569
613
649
648
576
492
476
495
516
553
565
516
459
436
438
457
508
559
589
592
608
609
607
604
607
617
625
620
597
550
497
509
539
605
677
675
581
482
409
382
366
342
370
445
509
557
588
564
531
493
479
503
508
505
494
454
412
451
554
590
568
530
495
485
516
540
573
602
557
457
400
419
470
486
500
508
477
470
512
590
623
606
550
503
473
429
397
395
443
481
512
543
559
545
496
430
394
408
435
513
600
611
592
565
562
555
530
517
506
475
452
434
464
526
561
552
541
528
534
519
498
478
481
511
525
515
524
536
559
563
570
566
555
554
550
525
491
467
455
489
537
529
507
478
440
402
409
472
562
636
659
626
583
551
522
493
487
501
516
535
532
555
577
566
538
510
502
490
502
547
588
599
584
575
564
558
548
501
470
464
455
476
525
515
491
514
566
610
603
559
539
518
496
495
503
506
528
562
590
574
536
538
564
591
613
635
594
528
487
469
457
479
488
506
520
537
559
558
522
503
465
446
458
449
447
466
481
505
524
561
605
581
531
486
453
470
549
652
749
826
857
843
806
730
629
502
366
277
291
347
394
411
430
440
462
448
434
470
497
476
445
441
446
418
418
493
572
567
540
500
464
455
468
458
457
485
535
584
609
591
518
467
456
474
495
531
540
560
579
566
521
503
568
644
654
579
527
490
443
418
423
449
508
554
561
565
587
603
603
564
523
483
475
505
541
539
548
565
558
531
493
476
473
502
566
600
588
572
537
521
507
486
494
490
459
470
512
559
586
588
591
602
619
592
527
468
444
457
464
480
517
535
526
505
478
499
557
594
627
574
460
407
413
436
472
508
503
471
463
506
557
564
556
547
531
486
459
431
409
388
403
410
407
421
450
495
559
599
549
486
464
469
456
447
455
482
507
531
560
569
540
536
545
552
611
640
607
533
439
390
388
403
416
441
472
494
519
521
525
503
501
526
534
545
539
508
512
533
548
534
499
459
444
464
487
501
488
517
537
536
552
585
583
573
526
438
388
390
445
505
544
556
550
497
424
416
461
496
518
517
496
492
502
519
521
530
542
537
533
506
484
492
536
553
514
505
514
530
587
614
587
549
489
460
462
477
490
513
512
481
449
425
460
492
504
503
502
513
522
506
482
498
590
664
699
674
610
550
517
505
529
571
560
512
501
501
483
470
446
437
453
480
503
511
512
493
475
504
555
539
482
459
490
516
525
500
472
448
516
636
744
792
804
813
834
860
846
774
669
559
442
351
300
297
307
334
377
418
454
452
434
401
402
425
476
519
565
572
545
529
514
518
543
552
518
487
482
453
442
479
530
580
577
518
481
478
543
603
631
626
606
605
611
575
511
460
447
463
472
491
506
525
556
600
633
626
588
568
538
519
537
548
585
634
614
544
504
468
452
485
496
493
481
483
505
529
563
598
597
573
563
599
621
636
644
631
591
555
545
552
533
518
515
542
544
506
478
474
536
633
671
646
580
493
464
472
465
455
486
485
462
458
498
539
546
518
482
469
468
467
452
468
500
518
515
498
484
471
486
533
566
576
566
546
523
485
445
422
423
465
484
513
543
541
519
499
459
444
447
473
505
536
526
508
514
531
548
558
557
525
481
458
445
426
405
418
468
548
590
591
568
575
559
527
534
528
520
540
555
567
576
546
497
480
494
544
574
558
489
443
435
457
470
483
484
473
490
503
524
552
564
573
573
528
471
450
454
468
503
544
575
560
543
557
580
571
529
478
455
497
551
566
544
522
490
458
464
509
530
514
480
449
466
478
494
514
532
539
542
542
540
550
558
558
562
560
572
564
551
538
533
531
528
512
513
503
508
508
519
515
501
459
447
477
527
552
531
508
494
483
511
510
495
478
482
543
588
572
537
510
487
444
421
440
490
547
588
614
645
678
699
711
721
748
790
742
609
487
364
300
313
365
417
416
384
362
358
368
409
475
507
544
600
601
