1
1
1
0
1
1
1
1
1
1
0
1
1
0
0
1
0
1
1
1
1
1
1
0
0
0
1
0
0
1
0
1
0
1
0
0
0
0
0
1
1
1
0
1
1
0
1
1
1
1
1
1
1
1
1
1
1
1
1
0
1
1
1
1
1
1
1
0
1
1
0
0
1
1
1
1
1
1
1
1
1
1
1
1
1
1
1
0
1
1
1
1
1
1
1
1
1
0
0
1
1
0
1
1
1
0
0
1
1
1
1
1
1
1
1
1
0
1
1
1
1
1
1
1
1
1
1
1
1
0
1
1
1
1
1
1
1
1
0
1
1
1
1
1
0
1
1
1
0
1
1
1
1
0
1
1
0
1
0
1
1
1
1
1
1
0
1
1
1
0
1
0
0
0
1
1
1
1
1
1
0
1
1
1
0
1
0
0
0
1
1
1
0
0
1
1
1
1
1
1
0
0
0
0
1
1
1
1
0
0
1
0
0
1
1
0
0
1
1
0
1
0
0
1
1
0
1
0
1
1
0
1
0
1
1
1
1
1
1
0
1
0
1
0
1
1
0
1
0
1
1
0
1
1
0
1
0
0
0
1
1
1
1
0
1
1
1
1
1
0
1
0
0
1
0
1
0
0
0
1
1
1
0
0
1
1
1
1
1
0
1
1
1
0
0
1
0
0
0
1
1
1
1
1
1
1
1
0
1
1
1
1
0
0
1
1
0
1
1
1
0
1
1
1
0
0
0
1
0
1
0
1
0
1
1
1
1
1
0
0
0
0
1
1
1
1
1
0
0
0
0
1
0
1
1
0
1
1
1
1
1
1
1
1
1
1
0
1
1
0
1
1
1
0
0
1
1
1
1
1
1
1
0
0
1
1
1
1
0
1
1
1
0
1
1
1
1
0
1
1
4
2
1
1
1
1
1
0
1
1
1
1
1
1
1
1
1
0
1
0
1
0
1
0
0
0
0
1
1
1
1
0
1
0
0
1
1
0
1
1
0
1
1
0
1
1
1
0
0
1
0
0
0
0
1
1
0
1
1
1
1
0
1
1
0
1
1
1
1
1
1
1
1
1
1
1
1
1
7
14
11
14
12
48
61
50
35
48
51
30
21
49
63
68
49
24
12
8
43
86
86
49
33
18
9
5
3
2
7
28
25
21
12
6
4
3
2
3
20
53
79
75
65
69
83
103
86
53
53
50
32
45
74
78
68
78
109
140
141
132
151
151
175
187
188
173
168
186
217
251
252
250
271
293
297
299
294
300
301
334
339
334
315
294
315
325
365
404
409
389
400
413
408
370
354
379
380
361
403
429
445
468
495
491
479
463
442
436
461
459
453
484
518
505
500
532
552
527
498
487
479
472
479
485
482
524
558
548
519
486
473
476
494
495
506
537
549
556
576
595
610
600
578
552
548
555
573
617
638
655
663
639
596
584
599
587
594
592
609
637
660
643
597
583
572
570
606
652
653
673
677
628
597
598
619
634
638
585
578
623
657
685
687
674
662
650
636
643
672
706
725
728
699
640
605
602
607
634
665
690
695
682
665
663
671
659
654
674
673
690
698
705
739
770
764
761
811
889
952
1023
1023
1023
1023
996
901
815
750
669
562
507
516
534
547
572
633
675
670
644
640
644
651
673
662
637
620
636
665
681
646
656
679
668
615
616
668
719
717
723
722
737
697
650
622
618
622
627
646
655
653
686
735
747
729
670
621
615
632
641
646
645
665
702
716
696
662
667
694
715
721
722
729
723
703
704
700
704
709
697
703
711
710
722
728
734
761
796
758
688
665
706
734
753
774
765
747
733
705
696
718
734
709
675
666
673
624
597
616
671
700
683
629
577
570
573
569
579
579
582
561
566
575
612
625
590
563
547
543
547
553
556
534
501
497
500
495
488
501
538
556
552
540
532
547
559
526
514
511
526
551
560
609
585
565
551
518
500
490
481
473
470
489
529
549
567
608
617
586
558
528
513
517
524
534
539
543
527
533
537
539
578
609
593
545
508
491
524
539
533
519
508
514
569
592
575
540
514
509
507
508
537
556
568
551
538
528
542
578
566
545
525
522
500
479
485
502
528
538
552
555
516
513
524
527
563
563
536
536
541
534
515
498
513
499
495
490
486
496
515
490
479
488
481
453
450
503
565
547
517
537
554
557
536
518
512
523
545
561
504
478
486
479
491
523
568
593
586
569
527
491
485
494
491
472
480
507
509
523
538
521
528
523
495
517
559
556
533
508
499
504
508
523
543
561
554
524
486
476
491
497
489
509
511
508
512
539
550
548
513
473
456
468
478
471
482
479
466
498
538
559
619
607
507
432
417
457
504
518
520
529
519
504
507
513
510
507
503
505
535
552
541
516
491
480
477
483
505
508
487
464
455
480
516
538
528
490
492
504
501
500
558
622
690
758
838
892
870
833
819
752
612
502
459
447
413
343
311
304
319
355
375
392
412
427
442
474
478
461
447
430
437
446
446
432
431
446
455
461
469
454
448
448
424
438
480
487
487
483
479
481
498
498
511
524
516
498
490
528
535
510
490
472
445
422
451
501
517
495
494
492
512
511
502
501
517
517
517
523
509
495
510
550
551
531
510
531
531
546
581
582
564
543
525
517
528
535
538
588
647
647
579
534
534
557
574
586
575
564
551
540
508
504
476
513
552
565
561
546
528
526
546
546
505
463
450
447
435
416
405
406
441
458
477
471
439
417
433
444
474
489
479
450
434
440
430
462
488
468
470
485
491
493
484
477
502
506
531
543
494
458
480
513
519
532
535
541
541
564
581
564
510
450
469
546
571
569
579
596
585
595
596
580
564
582
574
531
523
550
590
585
565
570
572
558
573
587
576
589
604
596
575
549
528
532
552
569
569
584
617
619
593
571
563
576
596
591
554
527
534
563
603
578
567
574
596
591
578
576
584
604
632
627
600
565
553
571
586
614
632
626
625
614
609
604
621
615
597
616
604
587
579
582
605
644
669
630
605
581
596
629
641
623
619
618
605
605
631
627
584
577
595
600
594
598
601
606
641
667
650
614
627
648
650
635
617
614
630
632
614
610
605
620
636
634
643
637
647
656
674
662
623
607
618
641
659
660
646
632
658
672
648
626
609
599
609
629
684
704
687
657
651
651
652
646
628
628
645
634
634
647
644
645
635
647
667
686
709
750
757
702
629
584
582
628
673
682
648
658
678
687
691
693
685
664
654
652
691
730
738
701
630
610
630
654
677
667
658
675
678
610
583
608
626
639
668
681
653
630
632
652
691
737
799
878
957
1023
1023
982
947
905
850
768
688
606
539
487
483
470
456
464
491
503
543
579
600
597
577
572
597
621
626
602
594
606
609
612
606
594
597
599
638
674
670
659
653
656
667
647
608
594
589
592
598
626
632
653
667
651
667
686
664
629
619
638
662
665
676
700
715
695
654
639
632
630
638
663
691
700
690
688
690
705
735
742
725
693
655
657
704
743
759
763
755
741
727
719
731
745
731
715
700
701
728
748
749
749
737
713
679
684
700
721
741
715
668
648
649
652
672
696
675
659
679
666
630
604
583
552
538
541
546
549
567
577
586
564
535
517
512
502
512
543
523
510
512
522
520
527
559
553
530
514
514
531
541
554
539
496
485
522
570
593
585
554
501
511
555
581
599
601
603
632
602
570
541
533
562
611
608
587
561
556
535
536
546
567
589
595
592
562
550
592
613
603
581
560
557
580
570
559
572
573
585
591
611
647
627
615
598
561
570
579
583
591
588
582
615
636
622
620
621
584
555
560
575
558
548
580
594
618
633
627
640
638
613
577
543
544
558
577
598
599
590
583
615
624
609
605
613
615
615
605
597
605
621
623
595
581
585
578
578
585
601
624
636
616
605
604
615
625
625
610
610
609
615
623
621
628
622
602
594
612
640
665
666
644
624
591
559
559
582
584
620
665
664
652
630
593
587
596
596
604
633
639
636
633
630
636
662
651
630
614
618
621
629
626
631
617
596
609
637
662
653
619
607
595
605
627
632
643
641
627
620
614
602
631
666
663
662
656
630
615
638
654
671
670
639
588
533
525
570
593
599
606
610
622
629
615
636
666
718
777
828
875
909
934
959
979
967
895
780
639
529
446
388
369
370
413
448
481
501
498
516
550
547
533
542
567
559
523
530
555
559
570
583
626
644
636
603
597
616
591
554
536
563
576
566
556
543
527
543
591
637
638
616
613
632
654
656
620
580
563
560
588
626
626
609
617
631
653
641
631
617
575
559
570
601
599
607
635
653
654
654
651
671
665
668
696
678
655
642
639
617
609
651
681
699
700
675
659
661
645
643
654
663
647
650
624
592
591
589
616
645
642
626
610
613
610
584
550
520
530
558
589
581
543
526
526
564
605
588
530
492
522
546
563
551
497
459
490
520
526
531
568
590
576
553
545
563
557
496
472
521
584
621
634
620
590
549
531
543
553
552
559
562
575
588
584
597
617
607
600
622
631
645
640
611
590
592
569
550
557
584
636
635
603
604
610
601
589
584
585
622
646
626
621
622
619
618
585
592
620
633
616
587
595
605
598
602
600
606
592
589
582
581
597
601
596
587
595
614
618
617
623
635
626
624
604
602
613
638
627
590
581
586
588
594
599
594
620
641
625
580
551
555
582
609
604
605
621
638
618
590
582
616
662
667
647
607
601
606
596
570
564
582
575
585
592
568
576
587
605
608
593
577
576
602
628
616
636
673
653
608
558
540
557
585
590
589
605
625
632
613
587
607
612
620
632
621
609
589
574
558
561
602
625
626
613
601
616
616
613
620
604
574
556
558
537
533
576
616
655
678
648
645
628
597
604
599
588
581
582
597
594
606
636
663
659
668
652
643
609
577
549
544
582
598
594
582
570
596
614
597
572
577
593
601
606
582
578
582
604
631
661
712
778
850
914
963
945
926
901
855
768
628
538
488
448
419
394
396
418
450
476
476
513
544
529
536
540
542
546
560
579
589
529
515
528
557
558
540
530
558
600
612
566
537
517
528
572
603
604
624
620
606
593
589
587
559
542
550
566
583
621
624
621
628
629
618
614
606
605
576
561
579
587
610
651
638
629
617
597
567
591
609
632
641
662
691
694
678
639
618
634
643
638
632
658
662
642
650
665
667
674
697
704
699
677
664
678
666
667
652
637
643
647
606
575
583
581
583
612
589
539
539
560
567
571
547
514
527
555
581
579
553
542
553
546
537
507
480
499
520
547
557
552
549
529
501
502
504
499
510
548
571
567
577
575
544
536
542
542
531
527
538
530
539
554
569
571
576
560
553
519
508
529
529
551
588
612
610
610
628
624
600
556
543
544
571
595
604
567
556
555
541
546
547
537
520
549
583
585
570
560
559
558
531
521
539
561
570
582
567
543
563
600
591
549
507
475
460
507
586
622
621
573
557
565
561
553
541
544
559
584
588
588
549
526
532
517
538
571
587
593
595
582
560
534
549
575
573
544
522
536
562
576
553
544
569
617
621
585
558
547
535
541
564
575
563
558
564
533
513
518
530
528
527
531
555
578
595
594
557
530
531
552
562
571
561
575
589
579
584
579
556
559
575
568
523
521
532
548
552
574
584
563
546
535
513
531
564
582
581
560
563
558
585
616
612
606
571
520
516
546
600
614
611
575
543
531
540
540
540
564
592
593
603
588
566
589
607
601
587
561
566
597
630
613
595
599
589
567
557
551
544
545
546
547
573
602
596
575
546
535
511
508
570
653
740
836
918
978
979
952
927
857
747
645
557
473
400
376
359
352
363
382
414
455
472
481
490
490
486
471
456
459
498
523
533
545
542
514
503
522
505
487
488
489
500
524
537
524
507
508
523
536
561
572
562
560
562
554
535
534
544
545
542
536
532
545
537
529
545
575
608
600
593
591
568
560
570
576
576
592
620
631
603
590
614
629
628
607
565
568
627
654
653
653
664
659
667
653
643
635
626
627
653
662
650
658
624
583
579
610
631
624
615
575
576
593
588
565
535
538
561
567
532
535
498
492
502
468
432
436
452
456
478
484
501
545
546
513
483
461
425
418
432
452
452
441
407
381
402
435
472
487
493
492
499
509
510
513
509
481
452
448
441
479
536
565
576
568
542
530
530
524
502
499
475
473
502
502
513
530
550
552
542
541
541
523
526
523
485
463
465
472
513
519
531
557
567
533
515
538
533
516
504
507
509
519
528
521
540
564
552
528
508
505
499
486
511
535
555
541
521
508
531
556
557
532
540
552
544
538
536
527
501
480
499
530
553
589
594
559
534
531
542
550
542
554
573
595
583
546
509
524
544
554
540
544
521
498
504
522
548
568
555
539
546
553
535
559
563
546
507
525
584
603
569
553
558
583
596
551
511
514
538
535
528
545
551
558
571
554
520
475
477
529
568
590
603
591
550
544
554
557
537
518
520
546
542
535
566
588
533
502
496
484
476
485
519
512
493
516
536
569
599
609
578
531
527
550
555
568
583
588
565
559
536
509
489
493
532
561
567
568
564
517
484
489
507
514
554
580
562
544
506
503
519
574
657
731
798
831
877
917
910
857
779
674
570
476
412
396
403
390
341
325
336
381
392
404
436
479
527
521
466
441
445
453
462
475
487
502
488
476
477
490
484
453
439
441
449
477
510
516
488
481
494
504
502
498
502
505
527
543
522
526
543
561
558
532
544
528
526
531
523
526
544
600
615
595
582
571
578
591
578
567
561
564
566
571
594
626
624
641
627
613
616
603
574
572
567
598
633
666
662
620
582
587
612
619
594
610
630
624
604
583
573
571
567
562
556
557
548
524
499
501
509
490
476
461
458
479
461
450
453
452
459
428
412
420
436
441
469
481
449
418
400
424
422
432
434
446
433
412
390
380
406
458
506
494
474
494
509
514
494
475
469
471
460
477
508
533
538
510
504
524
517
496
490
504
519
536
534
502
505
506
493
478
476
493
494
491
486
513
539
535
516
493
486
490
503
504
480
490
515
517
516
526
529
537
537
499
477
506
521
506
492
496
519
506
493
495
477
484
502
477
471
500
523
504
490
495
510
543
565
538
506
456
465
485
521
524
516
514
473
473
523
523
502
489
478
487
491
500
526
543
533
490
497
536
533
520
503
510
521
508
511
496
502
539
551
532
507
505
522
519
509
492
471
498
552
550
532
507
500
501
498
511
541
562
546
507
484
491
503
513
490
495
501
493
516
518
531
530
516
496
509
507
484
487
507
535
564
571
538
504
492
502
516
528
549
560
531
511
498
524
555
520
505
522
516
503
520
533
536
536
520
491
489
502
512
520
489
499
500
504
512
478
471
526
577
599
669
754
807
854
874
847
786
727
646
568
495
416
350
294
272
304
356
384
386
391
409
419
418
437
456
473
483
466
442
425
434
471
484
454
427
442
480
473
460
455
456
447
442
467
488
489
477
469
442
421
441
480
503
516
506
480
460
475
500
506
491
466
461
468
504
515
495
508
520
536
539
521
486
457
454
483
521
540
537
533
552
562
536
531
556
571
527
521
539
530
535
572
584
564
552
554
553
598
616
601
567
537
527
544
555
562
559
537
509
520
548
545
529
498
471
459
446
450
477
457
385
353
382
419
414
385
379
413
430
415
412
426
407
380
375
392
396
398
392
400
430
452
451
415
380
363
354
374
380
389
434
440
430
440
470
470
423
395
394
398
427
457
482
499
458
436
442
464
465
469
500
502
485
492
497
485
489
523
486
441
412
413
429
460
462
458
473
472
469
485
486
443
410
437
464
477
506
515
504
491
501
523
528
511
468
413
386
405
434
470
479
482
496
517
521
496
491
514
527
514
518
494
476
455
422
412
451
482
476
461
473
509
512
521
510
496
485
486
490
512
512
509
503
491
489
483
470
477
481
473
490
512
518
504
508
517
513
510
494
478
470
489
494
499
525
533
514
495
482
487
483
479
489
495
479
475
482
509
539
541
551
545
536
529
503
464
478
504
502
480
456
464
482
498
508
532
557
568
560
501
469
473
484
495
517
530
531
531
514
515
527
553
569
562
530
522
537
547
523
521
527
519
497
484
489
522
536
525
513
478
491
483
466
431
422
444
450
484
506
521
557
597
609
614
697
783
825
851
835
769
674
559
496
467
424
386
378
364
377
368
337
358
391
432
443
460
481
505
520
519
514
493
474
490
518
518
494
478
506
515
494
470
438
471
529
566
576
558
542
512
479
467
493
543
559
535
526
548
564
545
523
556
600
571
523
496
514
526
509
509
520
531
527
518
510
519
567
599
626
678
688
665
615
569
567
591
612
635
674
697
695
687
686
651
632
649
670
694
672
667
692
712
722
697
662
627
623
626
604
582
562
553
550
570
570
579
599
596
583
555
543
535
487
463
482
493
501
525
530
504
478
444
420
419
432
423
413
412
422
439
469
482
464
456
448
446
442
448
459
483
504
521
510
495
485
458
445
444
443
442
439
454
441
439
457
476
489
489
482
467
471
493
514
494
463
488
514
498
484
485
495
526
531
502
479
458
435
435
462
497
543
540
516
506
491
484
487
507
534
522
503
513
522
525
516
508
522
530
521
520
513
486
470
472
502
508
511
489
480
470
495
533
542
527
526
517
497
491
494
507
515
517
531
544
499
489
513
541
543
533
526
532
537
541
545
519
473
461
462
483
502
524
547
535
522
523
533
546
562
573
574
539
544
582
594
550
558
579
552
546
544
555
547
543
537
538
556
556
554
548
512
512
534
543
549
545
552
565
574
577
565
559
560
561
547
509
467
480
517
540
543
543
541
535
522
531
540
536
538
505
497
509
515
518
515
516
512
516
513
514
516
520
523
509
506
502
506
505
491
485
500
499
494
507
496
483
476
483
434
447
486
499
475
467
446
425
422
411
444
487
508
494
489
515
539
550
534
528
520
495
468
487
503
516
502
502
484
445
432
426
431
436
434
442
470
498
497
482
481
505
543
564
594
624
662
692
741
782
816
833
813
747
633
529
443
378
333
291
275
336
395
422
433
447
459
442
450
465
491
509
533
520
473
436
436
429
445
479
497
511
526
507
481
469
487
522
522
502
511
502
470
460
478
515
545
540
535
499
474
475
471
493
526
504
521
541
548
551
552
548
558
518
503
516
535
545
546
513
465
487
580
661
676
625
576
543
531
522
525
516
531
526
537
569
588
617
609
582
567
589
607
599
573
570
565
553
565
575
589
584
550
579
613
607
567
539
523
504
501
494
507
505
486
475
471
445
418
415
424
407
386
389
395
377
393
441
450
443
438
435
435
422
403
388
386
392
388
396
415
444
454
440
422
430
445
440
431
446
443
402
376
390
417
438
444
442
426
453
508
525
504
523
568
570
540
491
443
443
464
465
478
509
511
479
467
494
507
486
475
486
530
548
539
553
554
541
541
540
544
548
553
557
554
544
510
483
465
477
506
522
500
489
509
529
519
504
507
515
522
516
501
515
507
518
520
519
516
517
543
547
561
589
570
502
479
464
458
462
467
485
475
486
496
489
494
521
551
547
530
512
493
480
486
508
530
540
553
544
514
519
538
531
523
533
541
542
533
509
487
467
448
452
485
504
505
524
530
509
480
458
464
477
492
508
532
534
523
492
506
537
534
510
478
451
463
474
490
500
507
523
528
539
560
533
498
473
483
494
481
472
487
506
501
506
485
490
511
503
511
525
508
499
526
528
493
456
463
490
513
520
536
542
547
529
535
546
566
574
560
540
512
495
495
486
484
487
496
501
504
496
484
495
528
555
546
534
513
518
526
526
545
531
515
495
473
519
568
585
578
578
609
581
551
518
496
500
534
525
514
526
511
515
536
549
559
579
563
512
472
482
509
521
519
518
535
560
562
610
644
687
758
808
829
840
820
765
685
619
562
504
446
402
393
392
394
389
394
425
436
413
411
452
472
469
490
517
540
526
500
472
454
443
460
478
466
477
531
545
557
521
474
462
467
485
499
508
509
515
542
539
522
528
521
485
444
446
481
500
515
522
493
479
495
509
512
516
547
556
528
528
542
534
542
542
523
519
560
562
557
538
528
550
557
561
582
586
584
564
566
575
576
577
579
563
569
573
576
591
591
585
579
569
575
564
549
542
520
501
505
520
537
551
546
531
497
472
461
459
478
477
453
440
449
467
465
465
451
428
442
454
439
399
386
372
363
368
385
395
420
417
379
393
432
446
424
419
442
459
453
442
429
430
436
461
473
465
444
443
474
498
502
470
434
414
408
430
442
447
468
477
526
558
536
490
456
467
487
477
457
444
455
459
449
500
507
490
472
480
496
514
525
524
511
533
544
551
523
487
480
459
452
454
448
464
501
517
504
512
534
549
542
511
487
481
459
479
484
490
505
500
517
520
510
509
505
509
528
535
503
483
477
505
501
485
469
469
486
511
507
493
477
469
494
496
504
523
554
553
522
486
479
493
487
487
524
559
557
537
507
499
509
504
489
482
510
538
531
514
533
532
535
566
563
540
493
455
444
473
504
501
481
466
485
496
503
521
519
528
538
522
516
529
519
511
512
510
542
557
530
496
505
516
491
483
472
462
474
477
482
485
514
537
525
507
518
534
547
544
533
503
526
557
580
588
552
498
486
490
465
447
494
513
515
519
505
494
510
526
526
522
504
485
510
540
548
547
535
514
501
515
543
558
546
530
508
507
519
509
489
471
468
489
518
560
553
545
520
516
541
531
523
544
566
579
581
561
534
512
490
505
538
572
572
583
575
550
556
556
538
509
492
492
494
504
508
519
509
500
506
520
529
567
603
623
681
773
853
893
881
865
821
748
679
607
525
450
403
389
378
364
378
403
405
416
474
482
480
467
451
462
471
482
477
480
475
470
475
455
461
483
502
517
500
485
482
488
488
507
530
523
496
498
519
533
534
530
519
501
484
480
501
518
530
545
546
535
528
543
545
530
518
492
489
516
536
535
519
530
532
542
542
523
515
528
550
576
579
568
534
524
534
502
521
562
566
557
567
564
572
599
598
580
558
539
570
612
630
593
563
514
509
564
578
536
507
492
497
501
481
482
498
512
510
492
469
455
459
445
394
375
418
437
423
448
464
466
472
462
450
440
408
396
403
401
417
423
411
428
457
469
464
468
460
441
443
433
421
429
464
472
478
508
525
513
465
439
436
448
473
489
508
519
501
476
489
484
477
504
519
538
553
562
552
493
485
536
572
575
576
549
547
554
516
490
504
545
549
537
550
559
558
576
591
575
552
522
530
566
582
581
575
551
550
552
548
515
528
556
569
554
552
552
538
543
547
557
564
552
539
549
585
591
567
560
580
581
577
544
502
501
510
497
487
486
526
550
540
557
547
513
516
504
474
514
547
541
533
531
533
553
557
544
540
517
525
531
530
513
511
518
504
509
503
502
515
529
515
504
518
532
539
536
529
527
520
511
520
543
541
500
474
472
491
533
563
560
548
499
465
488
501
520
536
552
563
548
510
502
518
526
529
530
519
493
510
499
515
540
552
560
563
536
511
497
495
492
493
494
499
509
517
545
564
553
550
566
591
527
509
518
544
541
522
508
495
505
524
549
565
602
604
559
506
506
517
497
523
527
528
544
521
523
557
583
563
550
561
577
571
560
557
548
558
566
547
530
522
526
541
540
533
527
542
559
558
558
546
542
520
469
433
431
441
474
524
539
550
582
649
726
798
869
908
909
884
835
742
645
523
434
406
393
366
357
379
394
392
385
390
398
408
421
445
454
461
476
470
456
470
500
519
517
490
464
471
478
469
458
458
516
583
575
528
474
471
502
503
499
477
465
477
490
512
524
524
517
512
515
516
492
493
517
539
574
572
551
541
531
526
541
557
545
526
528
538
532
525
524
546
561
572
573
570
589
578
548
543
577
611
648
666
634
598
577
586
583
590
601
611
661
666
610
549
499
516
546
546
538
545
532
519
513
512
505
490
488
491
495
480
468
463
439
433
461
485
495
478
446
436
435
447
460
448
411
373
347
356
371
391
401
402
409
404
412
434
452
446
397
380
392
430
444
441
446
462
481
483
465
444
444
444
438
444
450
453
447
428
428
451
479
490
493
519
545
510
471
455
435
429
449
454
483
510
514
489
494
541
556
529
487
466
479
496
481
452
438
424
437
470
491
511
507
511
505
506
508
503
478
461
466
473
470
480
489
498
503
503
495
477
488
504
501
480
463
458
470
508
533
537
519
503
493
476
470
459
473
501
537
516
498
503
522
555
580
544
506
502
506
502
488
484
485
453
430
414
465
506
524
541
554
553
543
510
465
464
474
486
494
501
520
536
538
531
544
539
518
497
484
491
520
524
513
507
491
487
523
532
525
548
559
531
516
532
557
557
526
485
457
460
483
486
480
483
514
527
545
568
544
532
525
510
485
478
501
519
511
493
485
471
471
518
572
572
549
504
481
491
533
533
514
498
465
480
518
526
537
539
523
542
555
545
499
500
528
542
551
517
507
525
520
548
568
562
538
485
461
436
464
504
508
518
520
510
519
505
482
483
495
529
595
630
668
732
806
849
864
834
806
739
651
555
475
411
381
366
351
337
325
334
400
439
434
420
408
398
402
423
460
479
487
484
495
493
487
484
478
465
454
459
453
463
466
468
477
469
469
478
489
511
523
519
498
496
536
520
514
501
489
466
478
501
529
548
541
515
492
478
456
442
470
499
510
565
577
573
519
495
512
530
556
571
587
609
627
631
626
580
558
558
555
586
600
599
579
553
548
548
544
562
587
600
605
592
557
551
567
591
581
540
547
566
577
562
567
570
532
491
470
472
500
520
488
449
412
371
365
375
404
433
432
414
398
410
417
408
382
358
366
387
414
434
434
442
437
450
461
415
374
353
378
389
370
376
380
395
419
430
436
460
485
502
481
472
474
474
447
427
434
447
462
491
490
500
504
479
477
490
499
475
447
436
446
451
439
447
475
492
497
486
477
473
483
482
446
453
488
506
478
474
507
505
485
476
493
503
498
495
480
448
444
464
490
485
484
479
479
480
481
490
461
462
454
458
486
509
509
493
466
447
446
477
489
500
491
497
507
501
490
471
475
487
481
466
446
473
483
471
452
461
507
537
520
520
511
487
484
501
531
517
472
467
469
461
470
500
514
527
531
516
507
508
510
498
492
488
472
464
467
485
507
508
514
525
522
491
476
473
486
488
490
496
503
532
559
556
537
541
537
544
533
518
495
466
462
492
515
509
487
468
463
481
508
537
539
552
554
554
536
533
528
532
545
549
546
540
551
556
552
534
503
475
435
432
474
488
485
501
502
484
481
517
556
584
618
693
786
856
898
911
912
871
764
638
527
451
402
365
338
318
297
307
344
370
386
384
403
415
436
436
462
493
495
464
454
445
420
411
445
478
488
490
518
526
484
471
470
492
530
547
533
503
499
489
496
485
490
494
459
468
483
463
481
492
488
486
499
522
533
532
524
545
551
565
566
549
516
505
497
528
557
583
583
559
553
548
547
562
567
561
576
568
553
554
592
628
623
636
661
643
615
609
586
589
610
616
619
622
616
630
640
610
589
567
566
581
550
546
529
526
532
527
503
469
457
428
441
471
483
483
472
428
400
412
418
443
472
472
484
463
424
392
395
416
422
404
377
403
403
370
357
399
450
460
457
459
453
434
431
440
453
436
434
452
451
461
485
494
493
487
500
506
501
482
481
505
528
503
464
440
455
474
467
489
508
511
516
488
472
488
504
526
534
511
494
493
501
498
497
486
466
445
462
502
504
478
471
469
486
513
530
534
525
499
503
494
490
495
503
505
506
491
494
498
498
489
499
493
498
510
539
550
525
488
470
459
437
450
505
545
552
547
528
512
491
499
503
497
496
516
527
539
541
519
479
454
490
520
513
493
490
512
527
541
521
512
518
497
491
486
493
499
488
465
499
555
569
542
531
513
460
450
485
513
540
568
545
476
434
447
497
522
527
515
504
512
540
549
564
570
565
543
529
530
535
524
510
514
516
495
492
511
505
489
495
515
540
548
545
526
496
481
482
472
490
551
617
659
726
813
900
955
939
879
807
729
615
496
399
342
333
320
326
367
390
434
479
448
403
418
449
465
466
463
472
464
463
481
485
497
495
481
464
476
512
527
515
488
484
512
505
497
512
524
532
532
533
494
464
466
496
525
547
564
565
560
510
507
517
524
529
553
549
514
514
542
556
541
540
550
549
529
532
556
580
603
630
625
624
591
564
568
546
556
581
587
597
628
657
677
648
591
593
618
596
550
532
563
587
597
608
626
623
611
601
592
575
538
548
575
552
504
489
479
496
502
503
518
513
486
447
417
410
413
441
477
469
450
446
440
442
485
504
482
481
488
479
438
410
432
454
454
437
440
430
430
420
407
417
448
480
494
487
457
431
444
482
506
529
511
484
471
485
490
469
447
446
479
503
508
515
504
465
443
452
447
451
452
427
410
438
468
493
539
532
500
489
494
526
521
506
499
479
472
471
475
461
461
461
485
508
510
488
461
454
458
475
463
437
441
447
456
471
476
488
524
545
544
523
495
488
497
494
478
466
450
449
480
520
523
489
450
433
442
467
466
438
423
474
532
551
544
532
522
528
531
506
473
460
473
494
510
502
496
514
501
501
518
556
544
485
468
484
481
478
496
506
486
484
517
529
520
483
492
498
481
483
501
518
535
543
540
545
546
557
534
511
523
531
507
475
486
514
532
521
522
519
506
484
449
453
464
487
496
493
507
516
534
570
590
624
670
736
792
827
856
835
804
735
631
533
495
448
392
362
326
296
307
351
394
445
468
452
435
438
447
462
467
469
460
460
442
423
394
421
483
503
507
471
445
477
504
497
487
483
483
484
469
493
498
478
474
487
492
488
502
516
520
509
496
494
518
494
477
501
518
524
516
495
471
465
455
483
542
569
569
540
549
562
568
589
593
586
584
575
570
576
576
574
553
543
578
571
569
618
616
585
567
560
548
538
537
581
622
615
584
568
570
566
531
508
524
543
547
525
485
457
455
459
446
455
458
481
493
451
419
418
399
387
396
416
405
415
444
473
499
482
434
398
366
365
388
424
475
492
475
473
476
431
393
388
400
432
454
485
492
489
475
463
480
471
442
438
435
455
509
519
488
469
477
502
520
501
485
485
486
504
531
504
478
488
493
494
485
504
524
522
519
518
515
516
520
515
497
492
505
503
493
498
503
500
487
489
500
490
497
517
509
504
505
502
501
522
539
522
534
504
456
450
475
502
515
488
493
520
534
534
521
513
506
495
506
537
537
530
504
488
485
503
521
513
478
444
458
519
559
571
547
550
526
505
509
509
523
515
510
492
461
474
496
527
557
574
559
520
504
503
517
517
495
499
522
527
537
548
538
523
518
534
530
527
495
494
530
534
514
493
486
479
513
546
531
528
553
564
541
526
516
505
510
518
508
485
487
503
525
556
563
546
545
558
576
571
537
515
519
524
555
563
567
543
528
522
499
500
496
491
522
527
517
507
513
536
520
508
486
477
518
593
631
618
601
618
647
699
771
841
898
898
835
741
653
555
501
472
397
361
343
365
403
406
420
435
445
456
467
443
420
448
457
459
452
492
502
491
502
508
511
501
518
525
500
486
483
493
501
489
492
492
486
512
509
510
527
532
504
509
520
514
507
517
496
505
515
529
557
561
553
513
499
496
511
536
532
527
532
539
554
564
569
573
569
575
574
582
611
590
542
536
564
605
606
571
585
596
606
606
608
571
522
503
528
556
558
563
562
547
575
600
627
623
612
599
569
537
507
493
515
528
522
536
539
537
495
460
417
388
396
420
440
446
443
467
474
460
470
479
462
433
417
415
402
396
387
415
463
491
482
467
450
428
463
510
524
513
509
489
453
452
415
403
462
508
527
543
549
516
485
455
442
449
464
472
489
497
500
494
487
501
514
527
498
478
474
495
499
504
511
522
532
521
512
532
546
553
541
501
478
466
443
436
456
479
504
528
532
548
548
543
547
543
507
491
477
492
490
491
504
520
538
554
560
532
507
497
501
494
493
494
485
503
506
474
494
513
531
532
535
539
549
530
499
497
507
503
481
486
494
508
495
499
531
548
534
512
481
476
475
476
491
494
501
493
496
512
494
496
534
523
512
521
536
533
486
434
448
483
522
556
560
549
518
508
510
498
489
477
479
486
511
529
544
558
513
509
529
523
509
522
521
500
488
496
511
516
523
525
532
535
526
527
535
530
533
528
529
517
494
486
496
523
534
528
511
522
533
529
512
535
535
500
464
478
503
498
496
497
497
528
552
562
566
564
548
533
511
494
485
484
510
546
573
542
506
496
487
502
528
531
511
498
491
481
485
491
503
516
518
516
537
552
566
572
556
551
536
514
517
527
534
543
556
546
539
549
532
487
479
518
511
494
495
508
523
516
488
487
475
446
450
491
526
573
643
697
767
836
880
896
870
792
699
617
531
441
389
366
350
348
353
362
383
398
429
443
429
427
465
495
488
476
467
474
487
490
501
504
497
516
505
498
483
453
468
470
465
463
460
485
497
510
504
489
483
482
492
496
509
536
550
541
513
492
491
495
498
498
522
538
530
508
513
540
560
553
551
535
530
526
509
512
519
515
514
526
522
496
516
558
584
585
589
600
597
592
584
586
590
580
589
586
555
556
563
601
645
639
611
582
544
550
549
542
530
516
497
502
536
544
535
510
493
459
447
457
481
478
467
459
464
467
435
401
408
429
442
452
448
427
411
408
395
391
398
404
421
443
451
438
426
443
451
441
444
460
474
478
465
444
456
464
462
475
491
466
425
425
454
480
485
476
473
482
484
486
483
506
524
515
484
470
498
494
463
457
472
473
487
507
499
492
512
509
493
498
484
481
469
455
481
519
537
524
513
493
462
454
468
496
509
509
510
525
522
524
534
519
502
502
504
510
513
496
484
478
484
515
529
535
546
537
538
523
520
497
482
478
485
512
528
526
514
489
496
503
498
496
520
516
491
487
499
514
519
535
535
505
456
454
485
492
482
481
507
497
481
478
486
505
509
488
475
482
509
512
510
500
477
482
487
489
482
471
493
505
509
517
514
518
510
502
515
503
480
486
494
490
507
529
537
522
489
461
449
466
491
490
500
507
533
520
501
517
513
498
495
503
496
494
500
500
506
515
523
523
498
472
478
495
508
513
523
527
510
481
479
496
543
534
538
545
532
530
505
481
442
441
467
508
531
534
533
540
538
528
522
515
524
531
547
536
522
504
494
505
500
468
448
475
523
542
559
556
554
542
507
482
470
486
545
571
579
577
575
562
548
518
522
556
584
553
516
506
487
456
451
478
527
537
530
545
550
535
515
529
553
542
525
522
549
591
629
670
749
799
847
882
863
816
734
634
532
449
387
330
305
338
375
377
389
431
479
488
468
448
471
482
477
480
489
461
435
440
462
493
505
507
497
481
497
506
476
455
499
533
521
517
518
499
495
501
505
532
558
566
549
522
516
527
540
530
485
495
521
517
516
490
471
497
535
573
594
602
599
586
563
564
561
560
567
554
571
588
575
564
572
599
637
631
610
605
603
590
565
553
560
593
617
614
594
622
649
642
638
641
636
622
611
605
596
590
586
582
592
584
559
540
526
519
514
514
515
509
499
490
491
487
468
465
477
442
421
441
458
444
410
398
414
439
471
485
450
430
427
424
412
410
417
436
445
449
447
460
476
497
513
516
514
507
494
504
494
464
442
437
451
439
397
395
450
494
512
524
523
524
512
483
478
500
523
518
509
519
523
513
500
486
506
553
567
557
547
532
504
488
505
523
500
465
443
481
524
520
499
476
477
496
511
526
522
532
534
526
509
505
490
478
475
475
493
501
492
491
492
487
493
504
493
515
516
491
465
451
466
482
495
516
513
498
501
504
503
507
507
495
476
482
485
481
484
490
500
523
555
564
545
517
495
490
518
547
501
454
456
470
491
511
512
518
503
475
469
500
518
496
482
457
445
459
478
500
532
562
552
553
527
488
476
511
549
566
557
522
486
499
540
539
510
503
507
502
495
491
508
527
552
550
544
532
533
547
528
492
521
559
568
554
545
544
543
522
491
461
475
538
595
609
598
548
499
486
495
512
543
572
610
602
568
528
515
533
535
556
581
601
606
607
574
537
519
510
470
468
510
517
519
519
535
546
538
535
551
575
564
537
504
456
471
543
574
581
568
565
559
558
563
555
529
532
548
561
553
524
496
523
550
557
552
542
542
534
514
523
558
580
574
532
473
457
463
468
483
491
499
529
543
523
499
489
500
515
516
540
591
656
730
786
819
846
844
807
748
679
585
491
412
361
336
324
332
345
365
387
404
424
462
481
490
487
481
460
421
399
396
415
446
441
427
437
448
462
465
477
504
510
493
480
484
493
503
513
519
500
505
489
474
484
503
511
525
523
511
509
513
488
487
504
525
523
534
527
506
514
548
536
515
491
497
547
586
608
581
552
523
516
533
546
548
562
561
565
592
617
613
587
579
593
591
598
608
599
591
582
568
557
563
579
578
570
567
588
583
565
553
524
505
504
517
512
485
483
478
480
486
492
475
477
501
509
453
394
368
370
387
400
422
428
426
416
405
386
411
422
408
368
334
357
401
431
448
473
491
463
449
442
417
372
360
371
387
406
424
438
460
473
475
472
467
449
435
444
441
447
457
451
435
450
503
503
478
483
489
499
537
563
509
440
447
473
483
486
472
461
483
494
495
516
535
515
501
476
475
486
501
520
526
533
535
518
484
478
479
493
508
529
527
492
478
485
504
526
526
497
483
478
466
461
462
461
459
487
501
524
539
554
547
532
506
488
486
486
509
531
527
502
497
507
485
465
472
505
539
553
535
500
514
509
508
532
524
515
535
550
558
533
496
472
456
464
479
503
506
500
491
486
474
471
470
470
501
539
561
537
497
485
488
513
510
499
506
486
448
465
520
554
553
550
545
524
506
490
507
531
527
506
508
531
527
495
489
501
474
488
519
525
520
510
504
499
527
555
543
535
555
561
537
508
493
486
491
526
546
530
512
506
512
505
499
530
562
573
537
496
479
442
439
467
502
522
522
525
487
480
495
494
503
537
567
573
545
522
514
494
484
489
510
521
539
528
503
529
534
519
516
507
498
515
528
544
551
559
566
541
505
469
470
499
508
487
450
454
483
506
556
558
495
450
416
395
428
466
491
529
551
542
533
528
485
437
406
428
483
513
544
582
618
677
755
819
829
826
840
820
758
655
547
454
391
342
299
285
300
344
370
376
416
448
464
455
435
419
430
416
415
432
469
484
499
498
477
465
468
478
482
491
503
504
484
483
487
484
502
520
513
493
495
495
487
485
486
504
535
572
575
536
500
444
406
451
519
548
531
549
571
531
538
542
544
531
535
548
554
542
508
512
563
614
634
636
613
578
576
590
586
599
620
608
592
582
595
597
596
618
602
586
629
637
618
621
643
662
628
588
587
577
578
575
577
564
534
496
473
458
440
424
426
454
449
454
470
467
446
445
464
475
445
421
384
376
386
415
434
440
410
359
349
351
351
374
391
381
381
364
367
387
423
453
455
454
433
414
432
456
455
435
413
431
468
464
433
425
441
459
472
488
485
474
418
387
403
437
444
460
478
495
480
467
467
473
507
491
480
476
461
454
448
454
474
487
496
487
458
467
487
499
498
499
481
445
430
449
485
515
491
492
501
511
504
499
491
496
463
454
469
485
500
502
506
511
515
492
484
504
507
495
475
468
477
503
512
502
498
488
491
543
583
561
547
514
465
470
502
521
518
485
476
478
493
495
508
528
544
545
566
578
543
504
476
455
455
461
473
472
478
496
529
530
515
508
483
465
492
536
538
521
506
502
496
501
514
546
555
549
527
524
524
538
527
504
513
516
513
519
515
507
502
507
491
483
501
510
523
530
532
530
543
567
570
557
527
522
510
487
502
507
484
466
456
480
522
536
517
538
574
588
582
576
560
527
494
487
499
511
521
518
504
497
496
492
489
485
518
563
581
594
573
559
557
566
565
532
502
493
503
544
582
597
605
590
561
513
510
531
501
474
463
457
473
475
474
451
447
460
477
476
461
463
453
454
470
475
505
586
626
665
723
781
806
792
742
683
605
521
460
396
344
307
308
328
337
347
362
363
362
392
429
412
427
456
463
452
435
423
441
459
473
451
407
410
433
446
451
480
491
494
433
431
472
467
444
433
407
372
385
421
415
383
382
389
369
367
379
376
401
417
414
403
402
409
411
430
443
441
460
464
444
444
442
432
431
438
418
423
440
456
481
491
470
455
473
471
464
491
522
534
485
439
428
443
483
512
497
482
490
499
509
512
511
527
545
530
519
519
525
517
495
477
485
488
468
451
454
445
431
399
395
420
442
475
477
436
399
380
394
403
418
431
425
416
404
378
372
374
382
421
452
460
463
459
454
460
451
432
435
453
471
469
469
465
452
443
486
514
504
478
473
482
491
497
495
494
506
508
513
516
513
499
513
546
550
534
535
505
491
484
496
518
551
572
569
556
551
539
524
524
526
521
515
558
585
580
552
532
525
527
556
580
601
568
506
497
514
520
514
532
557
593
591
584
581
569
580
589
580
559
560
576
575
550
522
517
527
550
571
581
585
597
600
590
569
559
549
515
526
566
595
601
594
568
550
545
542
543
555
555
573
559
549
572
591
606
622
595
564
549
546
573
587
584
569
544
527
571
587
575
569
571
587
580
575
577
546
526
552
570
573
559
537
537
529
529
537
558
583
599
576
557
584
603
597
569
561
570
580
566
563
585
577
567
554
565
572
592
571
527
509
544
581
594
595
605
587
551
515
513
559
591
607
620
615
590
589
551
522
488
499
568
620
640
626
590
562
572
580
554
531
547
568
578
581
567
563
561
563
598
621
606
564
559
570
576
592
618
609
601
580
543
532
542
551
552
551
557
575
530
508
541
567
568
563
545
521
510
507
521
543
619
699
762
792
814
844
871
863
822
761
684
572
498
473
440
422
432
448
441
428
391
354
411
488
517
530
532
520
518
524
511
510
508
507
523
543
537
513
486
477
503
545
567
568
555
549
556
539
510
504
502
513
541
547
541
521
493
483
536
564
555
574
596
589
565
560
543
537
545
549
564
551
552
570
583
581
557
545
565
566
547
536
545
561
597
620
623
609
600
589
587
617
641
630
628
646
628
614
606
606
630
643
642
629
614
607
608
601
587
566
558
560
575
577
589
582
562
548
527
520
496
455
459
491
499
500
507
515
519
514
483
451
460
485
471
447
434
406
408
429
453
483
481
464
456
460
485
476
441
452
471
472
464
457
442
448
469
475
462
468
457
451
473
493
505
505
514
524
541
543
510
471
469
486
498
499
509
496
502
526
544
577
586
537
499
479
467
486
495
499
543
546
520
516
539
560
540
561
570
558
534
507
483
486
508
495
493
500
501
498
500
505
484
505
545
548
545
542
535
527
518
493
514
544
554
545
513
501
510
504
519
540
546
529
515
512
531
499
449
460
488
514
545
564
563
543
517
520
517
520
517
510
539
561
556
559
553
557
551
525
524
529
531
534
519
501
501
502
504
504
491
487
515
543
569
586
588
564
542
520
508
503
502
521
541
513
495
512
531
542
552
530
494
505
525
538
510
495
504
496
488
518
525
545
547
551
560
547
530
528
540
548
556
557
553
518
511
512
499
494
502
515
519
536
563
592
595
567
540
530
528
532
531
538
548
542
524
495
483
497
510
517
518
523
510
489
505
518
544
528
504
536
548
561
556
549
538
549
570
565
558
551
523
495
505
537
549
558
586
586
574
550
510
492
504
534
545
541
517
506
496
481
503
517
517
527
541
505
510
557
615
696
783
871
912
900
858
794
707
584
493
411
367
367
376
393
408
428
445
465
458
418
400
419
442
472
501
483
425
408
468
540
554
542
517
525
514
498
490
487
477
470
484
502
506
502
488
500
513
501
498
519
528
533
548
551
524
495
481
493
509
522
554
551
532
522
506
502
515
535
569
570
547
525
522
535
502
495
501
496
528
576
578
588
599
613
623
609
592
592
601
617
627
601
595
611
583
555
571
595
604
599
604
616
616
607
590
556
543
544
555
548
546
554
553
542
518
500
503
498
480
491
486
478
469
474
481
463
424
395
401
426
436
441
447
416
397
428
445
439
439
439
428
413
423
451
451
449
458
454
453
461
467
465
450
448
435
390
411
429
451
480
487
471
455
437
423
425
454
471
473
481
483
482
483
491
497
500
514
528
561
530
491
488
484
460
458
474
459
469
479
451
435
458
498
505
513
510
478
481
499
495
489
476
486
498
507
517
537
548
537
513
492
481
462
459
479
477
459
458
449
444
459
465
481
506
551
572
527
489
473
478
476
487
489
495
501
512
512
502
481
481
485
487
492
485
493
496
498
481
448
448
467
477
491
483
479
490
487
500
503
494
515
530
521
514
507
472
452
462
486
505
487
495
500
485
476
474
492
505
497
487
473
472
473
512
527
497
477
471
483
494
506
489
481
497
521
539
560
551
530
535
533
505
466
471
483
469
478
483
479
491
498
496
508
514
505
500
504
519
517
513
516
518
519
509
503
489
487
525
521
505
505
515
523
526
531
534
504
498
523
531
515
496
480
474
474
478
462
467
513
555
545
520
522
530
515
520
531
528
522
523
529
530
526
514
513
505
492
507
512
512
503
502
512
538
543
531
529
538
535
536
544
551
552
544
507
469
481
513
510
522
518
504
472
443
430
434
425
429
470
516
549
538
554
618
684
742
790
821
828
811
777
708
612
530
473
426
396
386
359
344
361
389
411
417
418
429
435
444
440
446
436
429
446
460
461
444
430
445
468
490
486
473
463
454
430
431
437
468
492
487
470
473
505
521
519
509
514
514
498
480
463
474
497
512
512
513
523
505
528
557
569
535
494
476
475
482
501
534
557
567
579
572
578
569
543
529
536
553
558
553
563
569
573
566
569
587
615
621
611
588
610
620
602
595
583
558
551
575
590
589
586
571
541
507
505
508
510
531
551
554
539
508
477
447
429
434
422
412
421
413
401
391
396
425
439
440
429
406
404
388
382
388
379
384
378
389
409
402
404
421
438
430
418
425
419
401
400
405
430
436
428
405
390
422
429
432
426
391
402
447
465
478
478
457
439
436
438
427
439
456
449
432
425
456
479
476
469
470
467
441
422
443
469
481
485
473
468
470
477
479
485
476
468
493
509
478
478
464
459
466
453
452
454
422
424
447
476
500
510
513
518
500
466
469
501
516
498
493
494
499
495
485
478
480
496
501
483
499
516
507
499
492
463
435
445
468
483
490
494
482
487
489
477
461
489
529
534
499
487
499
488
481
488
494
491
490
505
507
499
474
457
473
513
537
526
511
507
500
490
476
479
507
514
512
504
490
484
478
463
465
486
496
516
544
555
540
523
535
533
506
483
481
484
496
499
519
507
498
518
503
486
476
498
539
552
542
526
506
507
512
527
543
536
519
519
526
517
513
520
516
493
486
484
477
488
508
523
522
532
518
501
500
488
504
546
545
516
500
516
527
534
554
568
558
528
520
507
505
501
526
536
515
498
497
500
501
507
488
482
492
486
519
546
549
546
545
539
534
542
548
560
557
569
570
560
559
532
535
560
566
559
556
548
552
554
553
554
537
506
489
515
541
540
525
514
512
503
484
491
500
513
533
552
536
510
516
533
541
519
521
592
676
739
795
838
872
887
893
825
730
648
563
504
420
357
340
368
384
397
409
431
447
457
457
471
483
486
486
465
453
464
463
464
466
473
468
486
507
512
497
504
514
519
502
484
489
506
503
503
497
478
470
473
484
492
484
480
492
524
548
556
538
525
495
484
510
525
517
528
548
567
554
520
489
474
497
542
588
593
572
558
549
556
570
567
557
560
549
548
565
586
570
556
550
549
555
565
574
595
599
593
584
578
575
586
613
606
578
539
541
553
540
537
547
528
536
548
540
522
521
506
477
473
466
445
417
412
423
431
445
452
445
426
413
424
438
441
421
400
414
422
398
395
413
441
468
458
434
411
398
400
431
453
461
440
437
432
419
430
443
455
464
463
457
455
459
458
428
432
477
496
489
489
515
510
477
444
454
478
498
503
483
477
477
477
496
531
547
527
464
438
452
446
466
484
498
495
490
480
472
470
477
482
479
473
488
494
484
487
479
468
456
459
468
462
461
461
467
471
453
436
454
474
482
499
511
494
468
457
452
457
460
466
493
524
493
471
459
459
474
480
468
436
442
467
475
466
460
463
487
501
500
499
509
488
479
490
499
522
530
512
478
487
506
504
511
501
500
501
504
543
555
536
510
490
474
460
457
445
437
455
504
536
529
525
536
521
508
498
498
512
525
532
538
522
510
530
491
455
453
467
471
492
507
505
506
519
535
530
539
546
526
505
497
489
501
505
497
501
503
506
519
532
526
511
516
520
516
497
489
507
526
507
506
529
543
528
512
504
488
500
507
509
518
529
534
542
532
513
512
521
519
520
518
510
509
511
524
524
521
531
545
540
517
508
506
503
514
526
537
559
564
552
531
503
496
500
510
510
506
510
494
502
510
522
528
510
497
491
495
520
539
532
533
556
565
550
520
529
549
529
496
497
499
504
510
516
510
504
503
487
484
490
511
520
511
507
522
526
531
549
559
607
679
756
823
861
877
865
828
759
649
536
423
338
291
304
312
328
370
419
457
457
456
455
452
450
458
462
451
467
505
512
506
518
511
483
462
462
466
446
452
480
505
530
543
536
497
488
485
488
497
510
510
511
499
489
508
510
518
512
522
542
557
554
540
527
505
496
518
525
545
555
561
531
515
506
512
537
564
575
588
583
581
569
565
572
584
595
598
599
599
613
625
634
623
609
618
621
612
611
618
623
615
584
589
599
586
554
538
547
566
575
553
537
547
545
546
541
548
552
542
520
478
443
443
476
486
491
499
494
480
473
460
449
442
447
443
429
431
446
442
442
444
445
450
447
430
406
420
433
428
421
422
432
447
453
440
449
485
483
462
442
442
462
484
498
493
481
476
472
468
467
479
494
502
496
495
501
493
479
478
489
470
471
487
506
500
505
502
491
498
522
528
504
497
506
513
527
501
500
501
494
468
471
503
505
478
468
470
478
503
515
498
496
492
497
511
516
503
486
492
511
514
495
478
456
461
481
491
506
508
525
517
524
513
503
516
521
513
504
489
473
484
508
517
528
532
510
493
494
491
496
511
517
516
512
513
506
510
509
525
547
564
547
529
516
510
486
462
478
513
552
540
545
549
514
479
474
498
523
525
510
507
524
539
520
516
528
537
532
525
513
523
527
513
521
533
532
520
509
508
500
487
483
500
525
531
548
558
552
556
564
542
504
490
493
524
526
535
537
521
526
513
522
522
526
533
536
543
537
527
517
517
506
476
480
502
482
479
485
487
498
537
571
562
534
528
527
527
524
506
499
508
505
493
503
519
518
500
491
496
514
512
509
519
529
531
517
492
502
522
511
487
490
497
506
522
511
508
522
529
524
519
516
520
519
511
496
510
525
521
532
542
554
547
520
500
499
513
517
533
545
535
519
512
490
483
485
499
506
507
517
515
488
482
476
483
508
554
559
562
579
605
656
716
783
829
846
836
796
727
615
501
432
390
361
345
349
342
350
388
425
436
433
434
457
474
470
458
477
481
472
461
452
463
492
501
485
456
463
484
491
494
486
481
488
486
499
507
498
495
493
497
513
506
502
512
523
523
500
504
514
522
531
517
513
518
540
549
534
534
516
493
505
519
543
563
563
541
563
595
597
568
558
569
572
575
587
594
586
592
605
614
608
604
608
614
618
623
644
647
622
595
600
614
636
626
615
616
589
560
535
544
561
580
567
546
547
528
495
507
507
513
504
485
478
485
485
472
452
435
429
423
430
433
435
441
432
446
447
447
428
384
397
445
446
458
470
454
455
452
415
415
429
451
472
492
484
461
439
431
433
441
442
451
466
479
470
461
480
483
497
514
523
512
496
475
463
478
489
497
508
493
466
477
503
546
554
543
506
493
494
494
496
509
519
516
498
487
488
492
524
534
506
484
470
481
511
529
463
390
400
465
516
538
534
514
508
507
516
533
532
517
479
458
473
503
538
549
531
520
497
470
484
513
517
505
490
474
481
491
492
493
495
496
509
495
486
469
482
500
483
469
479
485
490
499
480
480
513
539
542
536
540
538
538
520
506
507
526
538
531
507
486
476
472
471
496
513
486
478
497
524
528
511
494
486
492
498
499
507
527
538
531
529
515
501
497
497
502
511
498
508
508
487
509
534
527
529
533
524
524
524
513
489
487
470
474
523
546
554
556
555
546
527
509
510
502
501
507
504
505
511
518
529
536
540
542
559
557
545
526
521
521
526
507
485
496
526
531
532
525
521
529
530
527
539
542
520
496
496
518
539
550
549
516
502
527
549
555
549
531
510
503
531
564
574
563
557
542
527
534
534
488
454
480
525
558
573
588
583
569
565
558
559
566
560
552
532
520
511
504
509
523
521
511
501
509
534
524
516
514
499
528
562
578
604
625
664
712
775
830
870
874
841
761
685
629
571
484
404
352
346
360
336
350
366
387
400
415
442
462
488
498
473
465
463
478
486
502
499
489
475
480
513
542
546
548
548
527
502
490
494
506
498
488
493
483
483
504
511
491
494
512
516
520
538
543
523
509
497
493
495
515
560
585
593
591
582
563
546
547
555
558
551
560
569
555
562
594
616
594
587
577
589
610
619
624
604
595
591
592
603
609
614
618
608
584
556
550
577
612
613
609
617
603
602
601
596
570
555
538
515
526
544
541
528
517
510
506
500
479
444
425
418
428
435
443
442
450
451
433
424
402
397
406
416
405
424
433
390
373
395
424
427
409
411
420
434
448
453
457
463
472
480
480
482
484
479
471
476
480
486
482
476
466
487
508
492
469
464
462
468
487
504
490
475
477
501
508
502
502
520
534
532
532
513
495
497
519
523
546
572
555
515
487
482
475
469
485
513
527
524
506
499
513
498
474
446
455
461
470
488
503
505
490
490
490
490
474
440
452
479
502
510
524
526
510
507
498
502
521
524
510
482
467
481
487
502
496
480
447
446
489
520
514
505
492
502
518
506
515
525
529
516
500
486
479
479
487
489
494
526
539
543
542
538
525
502
503
500
492
510
507
487
491
503
504
513
521
542
549
538
533
517
494
509
518
507
498
486
498
506
486
471
486
507
520
528
544
548
535
523
527
492
482
489
479
488
474
453
483
527
523
502
526
546
529
497
486
469
477
490
501
533
543
518
509
510
499
494
486
509
535
532
542
561
535
506
500
492
475
472
473
464
479
494
506
519
542
559
555
528
487
464
458
465
486
498
500
512
540
571
550
521
491
474
463
479
516
524
506
496
495
504
504
502
501
485
461
435
419
446
483
503
506
510
523
528
528
544
562
595
650
700
750
805
835
815
774
707
611
520
454
417
386
346
332
334
345
361
410
455
450
454
475
469
457
447
425
412
433
451
464
475
476
463
463
452
451
464
478
470
463
473
482
488
506
516
526
519
491
498
518
510
496
504
478
442
436
482
517
511
505
517
522
499
498
491
494
514
530
563
583
574
550
532
533
520
513
507
512
517
542
556
564
567
571
582
578
586
596
591
578
575
592
600
602
603
588
549
530
552
629
665
635
596
573
582
600
578
566
549
528
521
537
541
541
525
521
499
493
507
503
487
470
443
416
407
405
414
415
422
422
434
434
407
400
403
398
397
387
398
422
449
451
449
432
424
429
430
439
424
427
455
448
417
383
389
410
418
431
453
480
502
492
468
449
459
486
501
487
472
471
468
460
470
461
485
505
490
481
496
499
495
494
489
488
483
463
450
445
464
496
535
558
533
508
517
513
502
512
506
484
494
508
488
488
505
490
475
464
471
473
452
447
458
472
480
496
508
505
500
495
508
535
540
529
504
490
487
479
475
476
480
479
482
479
485
501
515
529
529
506
478
477
489
497
497
481
463
456
481
488
505
516
519
506
493
518
540
521
502
495
484
472
474
497
509
520
532
523
499
492
498
477
444
447
477
512
536
534
519
508
507
503
515
524
521
501
498
506
509
506
492
483
488
495
509
516
516
517
513
492
503
513
531
550
551
527
498
475
480
517
526
495
459
463
488
507
531
502
476
473
497
537
549
542
539
528
515
497
493
498
501
501
502
521
539
517
490
463
451
508
528
533
532
535
535
532
528
539
544
557
571
560
547
531
497
484
493
494
503
497
507
517
515
528
550
562
558
536
518
526
541
548
531
510
512
527
540
542
550
527
509
499
507
515
517
518
527
503
496
506
496
492
513
533
559
577
602
654
717
785
824
830
820
788
735
666
576
468
406
367
343
353
380
402
396
398
408
409
435
448
449
446
468
504
523
504
460
445
445
443
446
461
494
515
502
481
496
527
529
518
512
501
497
491
500
511
513
513
525
538
524
505
501
503
482
460
471
507
543
555
574
584
576
563
557
506
471
473
526
563
563
550
537
535
561
582
587
584
594
605
584
562
575
590
605
607
593
575
550
542
559
611
640
632
623
613
605
614
624
640
621
607
601
574
579
581
558
544
542
542
533
531
534
548
537
528
513
515
516
519
490
456
434
433
438
439
431
443
460
466
465
449
438
434
417
394
404
432
449
454
450
458
465
461
448
431
435
446
452
442
429
440
470
499
491
468
462
495
484
457
472
476
450
455
484
503
510
487
483
479
479
492
498
495
484
483
499
505
488
500
529
524
529
531
510
485
484
509
519
536
555
554
541
525
491
473
469
455
460
481
499
501
481
501
528
547
535
502
481
479
478
487
504
521
526
519
509
470
459
496
510
511
490
480
493
502
509
513
508
487
486
500
525
531
521
494
469
466
491
495
476
469
490
492
501
517
533
536
529
530
514
509
490
476
507
521
525
513
490
496
516
533
523
497
478
474
490
514
523
518
504
489
496
486
487
524
537
541
549
545
528
523
529
532
535
525
521
516
507
502
510
522
532
540
529
495
472
519
551
546
534
531
516
507
513
530
522
531
540
526
500
485
503
513
528
532
520
524
538
563
542
521
527
530
519
503
504
512
524
530
541
538
526
528
524
540
564
562
531
499
511
533
546
531
524
533
548
536
525
500
489
497
502
518
541
549
544
562
577
539
508
537
546
531
540
572
588
566
543
542
529
509
529
543
563
567
557
520
501
524
547
545
549
546
536
534
545
549
531
499
503
544
550
545
535
526
519
511
500
502
519
556
608
670
748
819
843
875
870
810
727
649
548
450
394
374
374
375
398
416
418
425
432
452
473
476
466
462
484
518
513
485
435
424
436
443
436
441
460
456
435
438
459
480
479
476
466
462
480
503
514
501
505
511
527
531
517
519
509
491
486
503
496
486
489
511
516
508
499
521
525
496
512
529
534
527
540
546
539
500
502
520
534
543
523
537
558
571
556
555
560
568
588
605
622
594
565
567
581
584
572
552
541
585
607
608
609
597
593
590
586
575
575
580
592
582
546
533
524
507
517
539
548
531
500
474
449
430
431
428
438
446
456
433
428
429
416
403
401
409
410
418
464
487
438
425
443
440
429
413
413
417
402
402
434
444
439
432
436
458
463
465
471
461
485
512
515
499
473
474
483
486
465
461
468
485
489
478
481
473
443
433
457
489
507
527
536
526
521
510
517
511
506
516
504
500
479
466
491
502
507
489
489
533
560
543
509
482
485
481
476
492
511
530
516
505
513
500
477
477
494
521
526
525
506
506
536
544
536
520
519
512
486
459
468
501
503
489
501
515
511
492
484
488
497
500
493
478
474
491
511
535
541
543
546
516
504
509
533
553
532
488
466
474
508
538
545
540
530
529
501
484
497
530
529
521
516
524
522
517
515
506
503
509
506
504
505
509
510
510
504
506
512
510
505
517
518
485
499
526
549
551
559
544
506
477
481
496
504
493
503
526
526
512
498
496
511
525
534
535
509
514
526
513
518
522
520
501
497
487
492
507
525
527
520
527
522
486
474
477
486
501
501
516
521
536
521
490
501
519
526
529
531
528
526
525
509
480
482
509
551
563
545
524
511
529
533
523
524
504
485
487
497
511
530
554
558
514
498
503
507
508
509
508
495
509
537
542
558
556
542
527
537
542
527
508
495
492
508
525
548
571
558
536
538
557
569
532
510
493
487
507
506
481
468
463
505
541
563
580
585
551
542
560
602
675
771
836
863
864
807
721
656
591
506
436
403
376
362
371
380
407
427
443
434
440
454
493
507
475
463
476
485
485
482
475
470
466
454
468
496
514
519
522
514
518
506
497
483
473
495
507
512
510
510
514
527
546
536
508
507
497
506
509
516
534
531
511
479
473
492
531
559
537
506
523
544
534
543
561
562
546
545
563
565
564
567
578
578
565
548
542
568
604
605
591
593
600
599
606
610
595
587
585
592
598
608
599
568
553
567
565
569
591
591
590
600
579
524
490
480
462
444
450
467
488
513
501
478
480
466
464
471
464
439
423
423
429
420
409
395
386
398
420
433
450
457
445
421
436
436
430
431
442
437
437
440
452
456
455
461
457
448
455
443
435
448
457
455
447
451
458
472
480
476
471
469
459
466
504
504
488
493
504
492
488
470
482
509
514
491
467
464
482
478
465
465
493
489
469
463
464
490
539
551
518
475
457
450
467
508
513
497
490
478
475
491
510
516
519
527
526
506
482
477
492
498
489
474
478
466
484
532
561
558
555
528
480
463
447
466
493
526
545
480
451
469
485
510
540
530
510
505
491
478
484
498
496
493
487
483
478
491
509
544
579
574
541
521
502
489
479
466
443
452
476
500
510
518
525
541
568
583
556
512
487
483
468
471
488
499
494
482
480
492
509
539
548
528
517
510
503
501
507
500
500
497
496
505
524
539
540
537
506
500
493
476
461
473
492
498
495
500
525
555
565
543
518
495
495
497
481
473
479
490
507
505
491
501
521
517
537
542
516
519
532
527
499
496
495
493
494
506
549
533
497
502
506
534
522
499
478
463
470
498
540
543
537
548
549
538
539
535
516
481
458
457
477
520
528
530
530
529
512
473
486
507
516
513
500
491
502
518
515
504
502
526
545
558
540
517
513
516
498
498
511
502
483
506
529
542
541
542
547
552
525
485
470
477
498
536
528
484
479
483
477
489
504
509
514
520
534
504
497
538
582
631
699
771
802
829
830
801
760
715
638
550
459
391
363
353
366
370
371
389
417
438
438
432
436
446
453
457
455
454
476
489
504
481
440
432
459
490
498
516
513
514
526
516
513
497
498
494
493
492
470
468
463
474
501
514
530
538
530
516
506
530
560
558
526
506
510
511
502
504
539
529
519
517
519
527
523
538
568
583
572
567
556
571
563
546
529
520
533
552
575
607
621
620
612
598
581
577
576
554
557
605
613
604
591
582
569
575
567
569
564
557
564
583
579
541
519
518
500
485
483
493
497
487
474
466
456
445
435
441
450
453
444
430
429
422
431
446
419
393
389
398
397
402
411
423
430
433
437
408
404
407
425
420
421
445
449
462
467
448
437
449
446
443
466
484
483
486
497
500
485
475
483
489
481
468
460
451
443
444
469
492
497
499
509
520
521
507
494
471
464
480
486
499
530
538
528
519
528
537
525
496
479
479
478
472
487
520
531
512
498
514
476
479
504
509
501
514
510
487
472
480
490
508
505
489
474
485
506
517
520
528
534
525
523
529
523
518
506
472
475
493
507
500
487
491
506
508
523
567
594
548
516
491
480
480
485
485
484
491
510
534
526
517
501
486
491
531
565
580
557
532
499
473
466
501
518
505
513
534
522
532
546
524
523
541
537
524
530
569
573
572
552
511
485
499
512
505
507
534
558
540
523
521
546
568
567
564
559
544
527
525
535
536
509
497
501
514
532
524
530
537
535
548
544
537
531
523
541
544
546
543
522
517
506
511
535
557
555
547
550
558
555
529
515
503
514
525
517
507
491
484
488
510
531
548
523
510
532
551
541
509
494
508
517
509
505
511
522
545
558
566
551
551
550
524
513
509
532
533
523
499
480
497
529
551
549
541
532
536
542
544
551
556
541
534
541
535
544
571
561
548
530
533
545
547
556
543
531
532
543
543
516
491
508
537
518
500
504
503
514
511
504
507
516
541
587
640
697
778
842
850
853
832
788
730
643
558
490
428
372
333
327
332
364
403
424
431
440
457
480
469
443
439
464
468
446
436
444
443
479
500
498
475
461
446
453
479
509
530
517
504
521
519
517
522
489
487
488
479
486
498
514
507
504
513
518
526
527
517
506
507
506
523
530
544
562
547
535
495
476
504
563
582
567
591
598
580
558
535
544
540
540
559
575
574
564
571
572
596
615
616
614
602
624
644
641
620
606
604
604
576
557
563
562
570
557
534
549
560
550
543
545
549
539
525
508
494
466
446
448
444
456
464
453
436
425
420
424
429
409
410
416
405
395
397
412
429
420
428
430
412
400
392
409
442
465
448
421
428
437
428
436
432
421
436
445
452
461
453
476
490
482
476
465
452
461
454
459
470
452
440
440
451
463
483
506
506
497
493
480
482
490
487
488
509
516
496
484
493
491
505
529
535
531
517
500
508
490
476
463
462
470
504
518
518
494
484
481
470
480
501
496
507
531
526
518
512
497
486
504
509
508
522
538
536
518
505
497
493
490
489
512
524
513
499
489
503
525
528
510
500
496
505
522
502
479
497
501
495
501
514
514
523
518
495
489
482
492
517
507
496
525
527
501
509
536
535
506
506
510
510
506
501
489
476
468
504
531
535
537
520
500
508
510
496
493
505
500
484
486
515
527
536
518
505
505
513
514
513
529
544
556
540
519
504
495
498
507
490
478
480
490
504
520
495
500
521
520
515
529
538
545
557
545
533
513
491
517
539
529
519
517
534
524
523
524
526
519
515
524
510
535
530
500
498
506
519
519
516
514
500
504
532
528
528
540
547
550
547
529
512
522
532
542
555
548
529
525
519
508
509
512
507
503
521
542
565
569
545
535
526
518
520
519
527
544
556
557
552
550
555
560
571
590
599
573
536
503
492
494
498
484
492
513
505
510
536
529
534
529
499
497
502
497
506
542
545
590
684
774
828
862
870
847
804
736
638
518
429
374
331
317
332
386
424
434
439
432
419
422
438
456
456
470
487
477
468
465
475
490
498
496
485
494
503
502
504
517
514
483
472
469
477
476
484
492
498
480
497
520
517
516
522
523
524
517
525
529
533
541
556
563
552
529
531
552
542
536
531
523
521
495
494
538
578
569
541
540
544
552
574
587
576
570
591
594
575
590
616
631
634
638
643
633
623
634
615
593
590
571
583
616
629
628
588
564
586
594
575
563
552
541
533
526
520
516
523
521
520
505
476
485
503
524
521
467
425
426
435
429
421
411
403
431
468
473
454
435
429
445
457
456
444
427
424
415
409
421
426
432
441
441
435
434
450
470
496
481
467
475
492
493
472
460
468
478
492
487
477
469
467
461
465
468
486
491
504
524
529
521
517
495
493
503
498
492
479
478
501
510
510
541
546
528
519
499
486
478
481
489
503
508
509
521
493
473
495
508
513
500
490
504
522
512
488
489
493
519
537
538
525
503
494
498
502
505
515
515
504
503
510
492
478
479
504
523
544
544
531
485
476
515
527
527
519
500
474
472
505
513
523
551
555
548
518
502
493
505
506
499
502
506
518
525
514
508
494
493
491
501
508
512
491
487
498
505
503
509
493
462
458
486
512
536
530
520
522
539
523
500
488
497
523
538
539
513
497
494
496
508
505
503
510
493
470
459
455
479
516
541
526
506
496
496
504
497
490
486
482
492
514
537
527
515
517
515
497
504
528
542
523
526
527
531
531
510
500
485
488
498
496
500
487
484
491
490
514
530
527
532
526
501
486
496
524
527
520
517
515
509
505
489
460
477
506
503
505
513
537
537
544
519
505
510
509
513
500
473
486
532
586
609
599
583
579
557
539
553
534
524
513
509
503
494
490
497
492
503
505
512
501
485
478
494
515
530
530
506
509
546
583
629
709
799
844
853
831
820
772
698
641
573
493
420
373
350
350
368
388
399
417
440
444
437
406
398
443
469
482
484
492
478
473
485
489
501
512
506
503
491
472
471
482
488
496
507
510
505
502
493
525
518
480
454
458
496
532
537
521
526
540
525
513
520
510
510
507
538
565
563
537
525
535
533
527
528
552
585
592
564
534
550
567
571
579
569
546
554
594
625
649
644
633
623
603
557
546
593
628
625
617
615
595
596
606
598
593
604
607
596
598
598
593
567
544
522
533
545
535
526
522
513
502
489
482
452
455
453
450
434
428
436
429
431
439
438
440
429
396
397
424
429
422
415
398
391
407
441
469
478
468
468
461
470
465
441
411
388
389
411
448
468
465
456
452
455
460
472
489
506
493
485
485
459
459
471
461
449
462
497
519
489
467
460
465
469
469
471
476
474
476
477
478
489
480
499
523
516
499
494
478
463
472
453
442
459
483
489
480
484
492
495
473
442
450
464
477
498
513
509
476
477
497
513
503
487
467
454
451
472
502
508
503
498
489
488
494
495
483
484
490
488
492
506
522
515
506
501
504
483
457
461
489
515
537
532
515
514
503
503
502
486
465
470
484
515
531
540
550
525
481
462
475
490
493
507
513
509
502
512
516
510
500
497
490
501
491
484
486
505
504
492
497
514
532
526
511
499
490
503
521
539
547
535
529
532
535
529
514
519
505
505
511
511
499
493
487
493
505
510
515
501
496
502
499
498
520
524
519
534
567
550
502
488
485
517
540
541
543
542
540
537
528
520
525
548
555
533
519
539
560
553
535
514
516
529
507
485
509
534
525
505
494
496
506
531
545
527
522
538
559
572
557
554
562
574
580
573
548
531
530
540
556
560
557
538
509
487
492
502
502
503
518
509
476
474
472
477
499
525
524
545
592
648
722
799
844
865
877
866
829
771
700
582
490
425
363
336
318
300
325
363
387
415
426
407
423
442
481
510
497
440
409
440
468
472
480
483
443
411
424
451
474
481
476
469
481
496
511
524
524
512
498
493
486
494
502
499
500
502
505
507
511
509
507
500
496
501
489
458
467
501
521
519
519
538
543
533
527
533
544
546
559
547
530
561
578
548
531
555
577
562
555
562
584
603
595
578
575
577
590
597
597
596
602
599
611
616
612
604
595
587
582
566
544
539
527
522
522
531
521
504
496
515
493
463
457
449
405
387
413
454
458
446
429
413
414
416
434
438
435
422
392
374
371
378
395
406
405
427
433
444
454
445
435
430
419
415
416
403
406
431
449
428
432
445
462
463
483
492
478
482
483
476
476
476
477
475
474
452
444
438
455
466
479
502
517
516
508
468
433
437
449
479
506
503
509
491
488
488
463
460
461
481
498
491
482
474
469
482
507
501
512
521
492
452
451
470
495
507
501
479
454
462
469
483
482
486
515
526
521
531
539
515
473
475
494
495
477
460
435
439
488
518
523
529
545
548
538
518
527
539
501
471
465
491
511
511
491
479
482
513
541
525
503
498
502
501
502
521
544
541
511
480
486
518
536
536
513
507
518
527
519
508
497
498
518
536
528
521
522
531
526
521
488
466
455
461
498
507
511
525
535
523
525
530
535
529
510
509
504
497
500
522
548
553
559
560
556
532
486
492
510
498
485
486
496
512
516
505
492
498
521
533
533
518
510
533
546
532
507
512
542
544
537
530
528
533
540
529
502
506
515
523
529
530
536
534
505
482
496
527
529
513
512
506
502
497
509
516
516
523
519
498
507
528
536
541
552
560
559
556
543
541
553
542
527
539
542
543
528
490
483
479
486
517
539
571
588
550
508
467
455
485
535
562
562
558
555
560
530
481
518
617
712
770
828
888
916
867
788
705
594
483
371
298
297
310
337
368
412
455
470
449
429
423
357
293
356
468
512
536
570
561
532
477
451
464
494
511
528
495
473
467
484
490
490
474
469
476
476
464
471
462
431
447
493
508
488
483
509
540
525
487
468
503
555
562
521
454
455
504
556
546
531
526
502
471
472
509
520
519
504
452
388
368
416
488
535
556
553
534
518
512
473
441
438
501
506
468
412
417
463
529
501
405
307
287
320
322
299
268
248
232
201
188
189
182
188
183
132
90
107
159
220
296
375
501
771
1023
1023
1023
1023
1023
1023
1023
1023
1023
1023
1023
1023
1023
1023
1023
1023
1023
1023
1023
1023
1023
1023
1023
1023
1023
1023
1023
1023
1023
1023
1023
1023
1023
1023
1023
1023
1023
1023
1023
1023
1023
1023
1023
1023
1023
1023
1023
1023
1023
1023
1023
1023
1023
1023
1023
1023
1023
1023
1023
1023
1023
1023
1023
1023
1023
1023
1023
1023
1023
1023
1023
1023
1023
1023
1023
1023
1023
1023
1023
1023
1023
1023
1023
1023
1023
1023
1023
1023
1023
1023
1023
1023
1023
1023
1023
1023
1023
1023
1023
1023
1023
1023
1023
1023
1023
1023
1023
1023
1023
1023
1023
1023
1023
1023
1023
1023
1023
1023
1023
1023
1023
1023
1023
1023
1023
1023
1023
1023
1023
1023
1023
1023
1023
997
858
728
620
538
467
395
305
197
107
59
33
18
11
7
4
3
2
2
2
1
1
1
1
1
1
1
1
1
1
1
1
1
1
1
1
1
1
1
1
1
1
1
1
1
1
1
1
1
1
1
1
1
1
1
1
1
1
1
1
1
1
1
1
1
1
1
1
1
1
1
1
1
1
1
1
1
1
1
1
1
1
1
1
1
1
1
1
1
1
1
1
1
1
1
0
1
1
1
1
1
1
1
1
1
0
0
0
1
0
1
1
1
0
0
1
1
0
1
1
1
1
0
1
0
1
1
0
1
1
1
1
0
1
1
1
1
1
1
1
1
1
1
0
0
1
1
1
1
1
1
1
0
1
1
1
1
1
0
1
1
1
1
1
1
0
0
1
1
1
1
0
1
0
1
0
1
1
1
0
0
1
1
1
1
1
1
1
1
1
1
1
0
1
1
0
1
0
0
1
1
1
1
1
1
0
1
1
1
1
1
1
1
0
0
1
1
0
1
0
1
0
1
1
1
0
1
1
0
1
1
1
1
1
0
1
1
1
1
0
0
0
0
0
1
0
0
0
0
1
1
1
1
0
1
1
1
1
1
1
0
1
0
1
1
0
0
1
0
1
0
1
0
0
1
1
1
1
1
0
1
0
0
1
1
0
1
0
0
0
1
1
1
1
0
1
0
0
0
1
0
1
1
1
1
0
1
0
1
1
0
0
1
0
1
1
0
1
1
0
0
0
1
0
1
1
0
1
1
1
0
0
1
1
1
1
1
1
1
1
0
0
1
0
0
1
1
1
1
0
1
0
0
0
1
0
1
1
0
1
0
1
1
1
1
1
1
0
1
0
0
1
1
1
1
0
1
0
0
1
1
1
0
0
1
0
1
1
1
0
0
0
0
0
1
1
1
1
1
1
0
0
1
1
0
1
1
0
1
0
1
1
0
0
0
1
0
1
1
0
1
1
0
0
1
1
1
1
1
1
0
1
1
1
1
1
1
1
1
1
1
1
1
0
1
1
1
1
1
1
1
1
1
1
1
1
1
1
1
1
1
1
1
1
1
1
1
1
1
1
1
1
1
1
1
1
1
1
1
1
1
1
1
1
1
0
1
0
1
0
1
0
1
0
1
1
0
0
0
0
0
1
0
0
1
1
1
1
1
0
0
0
1
1
0
1
0
0
1
0
1
0
1
0
0
0
0
1
1
1
1
1
1
0
0
0
1
1
1
1
1
1
1
0
1
0
1
0
1
1
1
1
1
1
1
0
0
1
0
1
1
1
0
1
1
1
1
0
0
0
1
1
0
1
1
1
1
1
1
0
1
1
0
1
0
0
0
0
1
0
1
0
1
1
1
1
0
0
0
64
297
603
986
1023
1023
1023
1023
1023
1023
1023
1023
1023
1023
1023
1023
1023
1023
1023
1023
1023
937
814
945
1023
1023
1023
1023
1023
1023
1023
1023
1023
1002
803
618
339
182
99
54
30
17
10
6
4
3
2
2
1
1
1
2
257
839
1023
1023
1023
1023
1023
1023
1023
1023
1023
1023
1023
1023
1023
1023
1023
1023
855
778
839
876
804
615
393
211
114
62
34
19
11
7
4
3
2
2
1
49
156
259
343
425
533
615
720
871
981
1023
1023
1023
1023
1023
1023
1023
1023
1023
1023
1023
1023
1023
1023
1023
1023
1023
1023
1023
1023
1023
1023
1023
1023
1023
1023
1023
1023
1023
1023
1023
1023
1023
1023
1023
1023
1023
1023
1023
1023
1023
1023
1023
1023
1023
1023
1023
1023
1023
1023
1023
1023
1023
1023
1023
1023
1023
1023
1023
1023
1023
1023
1023
1023
1023
1023
1023
1023
1023
1023
1023
1023
1023
1023
1023
1023
1023
1023
1023
1023
1023
1023
1023
1023
1023
1023
1023
1023
1023
1023
1023
1023
1023
1023
1023
1023
1023
1023
1023
1023
1023
1023
1023
1023
1023
1023
1023
1023
1023
1023
1023
1023
1023
1023
1023
1023
1023
1023
1023
1023
1023
1023
1023
1023
1023
1023
1023
1023
1023
1023
1023
1023
1023
1023
1023
1023
1023
1023
1023
1023
1023
1023
1023
1023
1023
1023
1023
1023
1023
1023
1023
1023
1023
1023
1023
1023
1023
1023
1023
1023
1023
1023
1023
1023
1023
1023
1023
1023
1023
1023
1023
1023
1023
1023
1023
1023
1023
1023
1023
1023
1023
1023
1023
1023
1023
1023
1023
1023
1023
1023
1023
1023
1023
1023
1023
1023
1023
1023
1023
1023
1023
1023
1023
1023
1023
1023
1023
1023
1023
1023
1023
1023
1023
1023
1023
1023
1023
1023
1023
1023
1023
1023
1023
1023
1023
1023
1023
1023
1023
1023
1023
1023
1023
1023
1023
1023
1023
1023
1023
1023
1023
1023
1023
1023
1023
1023
1023
1023
1023
1023
1023
1023
1023
1023
1023
1023
1023
1023
1023
1023
1023
1023
1023
1023
1023
1023
1023
1023
1023
1023
1023
1023
1023
1023
1023
1023
1023
1023
1023
1023
1023
1023
1023
1023
1023
1023
1023
1023
1023
1023
1023
1023
1023
1023
1023
1023
1023
1023
1023
1023
1023
1023
1023
1023
1023
1023
1023
1023
1023
1023
1023
1023
1023
1023
1023
1023
1023
1023
1023
1023
1023
1023
1023
1023
1023
1023
1023
1023
1023
1023
1023
998
986
1023
1023
1023
1023
1023
1023
1018
1016
1023
1023
1023
1011
1014
1011
991
979
966
946
932
926
936
964
965
942
936
930
922
913
914
906
897
897
892
886
891
894
906
893
853
810
812
823
836
833
835
824
806
822
839
840
830
811
794
793
795
792
783
777
780
764
756
770
774
787
787
783
780
781
774
760
729
687
684
695
705
703
704
705
715
711
689
692
701
669
659
661
664
682
712
724
736
729
711
692
680
674
670
677
658
650
654
643
627
621
618
609
609
634
650
643
637
651
657
639
626
642
651
632
615
611
610
590
571
582
614
621
615
611
592
578
550
532
520
524
540
578
590
572
559
568
583
586
587
562
544
522
489
476
475
472
481
517
546
569
593
564
525
512
513
505
505
533
547
543
526
515
503
483
486
483
451
451
461
473
490
506
511
507
507
527
540
551
557
562
561
533
483
448
427
418
416
422
429
413
400
433
471
474
458
434
412
404
400
417
435
459
496
563
642
706
758
802
819
776
690
623
585
525
448
354
294
258
220
201
205
227
254
260
250
275
318
342
353
375
378
356
347
344
340
329
336
351
356
354
375
395
397
370
333
318
328
344
343
327
311
302
287
245
247
306
350
350
363
383
404
391
362
340
332
333
341
342
346
358
377
351
326
331
355
372
368
374
390
406
402
387
363
337
328
311
311
305
315
356
392
408
404
407
408
399
405
406
378
365
356
364
365
360
363
356
343
341
346
319
296
317
321
307
315
343
335
313
287
272
270
250
232
211
184
192
229
253
231
197
165
139
129
147
151
140
148
158
164
186
190
161
87
51
84
136
162
164
155
159
169
162
155
166
167
174
188
192
184
164
150
121
111
127
154
165
169
180
183
171
174
158
146
125
144
174
185
180
184
198
188
187
201
221
218
197
190
202
206
193
177
165
170
172
170
145
96
100
164
221
245
243
244
232
205
196
213
218
213
203
186
175
156
177
221
251
267
264
212
174
166
177
193
184
178
172
163
183
185
184
194
211
216
191
186
197
232
240
237
239
244
226
196
183
178
194
207
208
214
213
193
151
145
185
218
219
226
238
241
215
194
185
170
157
160
182
205
224
238
240
232
246
244
208
208
213
190
187
188
201
230
233
216
208
198
185
170
175
189
177
164
174
205
223
227
222
213
210
199
206
209
216
220
206
194
205
200
208
206
199
197
212
218
209
201
183
171
168
154
161
169
157
132
151
193
209
207
213
217
214
197
192
188
174
161
158
159
158
189
223
234
245
241
226
221
223
203
178
173
193
228
192
165
157
167
174
155
138
146
174
169
165
175
163
156
166
198
254
311
380
434
477
508
533
530
496
433
354
263
171
91
48
26
15
9
7
29
47
47
70
92
122
165
172
167
144
113
106
111
128
143
156
167
178
169
139
127
138
169
168
152
145
133
141
169
188
190
187
179
168
182
203
212
220
208
182
170
177
178
224
242
225
210
222
236
225
219
196
184
197
198
191
180
192
221
239
251
242
242
252
255
267
273
296
302
277
276
286
300
301
290
283
271
285
305
301
298
305
287
284
302
301
276
252
230
218
199
196
245
287
298
276
255
241
220
196
178
170
177
182
189
175
168
175
179
163
148
135
151
165
138
104
86
98
108
122
141
129
132
131
101
110
96
90
123
145
139
132
125
130
147
180
194
183
167
170
192
206
196
189
197
209
221
219
204
200
207
224
218
214
234
263
253
245
246
228
206
185
154
171
206
224
226
245
261
263
267
259
248
256
252
246
236
227
245
264
270
272
269
270
278
276
274
266
247
260
269
270
254
252
237
222
213
237
259
255
226
223
244
271
269
268
294
297
283
275
271
267
266
272
277
273
273
269
265
271
288
298
305
291
270
261
242
235
259
286
311
318
311
315
328
331
320
282
254
239
224
242
259
271
265
285
317
324
316
305
288
278
280
280
271
276
282
317
350
364
353
342
336
325
300
301
289
272
260
263
267
298
321
330
315
311
300
293
305
314
293
282
296
308
320
309
293
274
277
303
329
334
321
327
338
339
313
290
300
327
313
302
299
301
311
323
337
355
345
343
341
337
339
334
323
306
298
316
331
333
327
317
319
326
330
335
345
338
335
334
324
317
324
337
379
430
491
560
622
654
675
670
615
521
459
395
317
247
202
192
187
199
228
236
235
248
242
233
233
256
272
279
297
312
316
314
299
287
288
299
309
282
282
312
347
361
356
339
344
359
374
361
347
335
328
327
331
360
376
380
390
369
349
337
333
338
358
384
384
372
370
384
406
404
392
389
383
379
382
397
395
385
386
416
425
430
434
438
428
430
426
409
411
410
417
437
458
468
471
474
457
425
415
415
402
427
482
515
507
505
489
472
466
456
459
452
431
419
412
419
426
408
390
353
336
342
333
330
314
295
287
304
318
309
309
318
331
334
322
311
285
257
266
275
256
240
274
290
291
290
300
294
293
299
299
306
309
298
300
306
311
305
313
312
313
317
343
363
353
311
287
301
321
321
304
305
314
327
352
391
407
400
379
360
342
321
308
315
316
333
356
371
371
381
398
398
393
395
392
381
360
352
359
358
363
370
376
393
407
423
425
411
383
356
325
330
358
378
379
372
372
379
370
357
363
378
387
393
389
374
358
355
363
383
388
393
395
387
375
376
390
392
390
380
368
380
389
399
401
387
360
354
362
364
359
362
378
385
369
367
365
368
375
366
373
376
369
369
385
404
407
393
388
375
374
381
383
381
374
371
397
411
418
415
413
411
396
398
411
405
396
398
400
396
386
397
407
403
427
429
429
435
420
399
389
396
384
401
420
409
384
382
398
417
418
421
439
439
453
438
446
436
406
402
409
415
419
429
440
456
455
464
478
462
432
420
394
383
396
406
410
403
409
408
382
392
420
430
442
438
440
429
421
431
475
561
639
708
758
800
814
769
685
580
499
425
349
295
271
257
263
287
313
335
362
382
374
353
368
367
360
367
359
357
380
407
420
410
405
416
430
428
422
408
392
397
423
424
415
419
421
411
437
451
434
410
414
426
429
430
446
474
480
480
487
485
488
475
452
444
417
419
445
464
482
481
469
465
476
479
478
483
497
503
512
526
534
530
505
500
509
514
505
505
509
517
526
548
567
562
555
536
508
509
530
559
564
551
542
535
530
541
551
527
509
497
497
516
496
452
443
464
470
453
439
430
413
392
394
400
392
383
377
374
379
389
394
387
375
376
379
355
360
379
391
388
395
399
380
359
361
380
393
372
360
353
354
368
361
341
357
388
385
369
385
411
449
467
450
421
406
398
385
382
401
406
412
422
436
443
432
425
443
465
473
466
461
426
404
429
439
436
439
438
426
435
462
485
498
493
470
450
451
449
425
420
431
441
452
471
493
500
471
429
426
450
466
457
467
471
474
461
455
462
470
473
468
469
487
496
487
473
469
467
462
447
438
436
454
475
480
483
478
460
450
436
446
461
463
467
480
494
498
486
475
460
449
452
462
490
494
491
485
479
486
500
496
491
490
480
472
456
433
423
460
490
481
469
470
465
472
488
497
500
502
489
470
454
452
458
449
455
465
466
459
457
457
475
485
468
480
483
477
477
490
506
522
522
514
516
502
482
481
478
486
470
441
437
459
474
474
478
480
489
485
481
470
474
462
453
455
465
476
482
489
498
484
486
490
478
462
465
479
500
511
510
495
479
475
488
467
468
475
477
454
462
502
510
507
513
514
503
483
495
513
521
513
508
487
470
470
468
487
527
547
524
506
494
489
484
485
476
479
492
480
475
464
472
483
478
483
492
499
510
520
571
619
656
718
779
798
807
784
742
693
628
552
484
430
389
350
317
316
342
381
406
422
447
455
459
439
399
410
417
416
418
423
440
449
475
479
458
459
475
477
475
456
454
443
448
471
487
502
508
496
481
488
504
497
459
454
501
515
518
505
487
483
493
497
496
512
517
480
466
488
517
526
532
533
530
519
502
492
488
495
520
539
532
538
545
560
569
578
596
586
566
569
569
569
573
579
571
579
594
594
593
590
585
587
583
580
568
564
565
561
555
570
583
561
542
538
526
509
499
514
525
496
471
469
459
439
421
416
411
403
403
403
417
421
410
389
398
409
406
418
432
401
374
367
369
387
409
423
435
428
420
420
418
409
405
381
371
384
407
423
433
436
437
444
444
431
438
441
424
413
422
447
458
442
426
441
463
474
469
480
474
469
464
464
472
503
510
502
465
447
439
440
453
465
464
452
442
461
471
470
446
430
447
458
460
455
441
437
433
448
464
466
461
478
500
501
480
472
484
481
483
465
444
443
456
468
484
482
466
470
453
434
449
466
465
452
426
422
435
464
480
473
465
453
447
458
475
479
473
467
460
457
481
491
483
464
437
419
428
451
474
491
489
482
497
490
476
457
442
443
456
453
444
443
449
474
478
480
481
469
465
461
461
472
473
452
438
460
498
513
491
474
479
477
476
469
467
462
473
492
496
494
491
498
505
517
536
536
511
496
475
460
466
476
472
478
491
515
534
539
533
520
515
506
496
494
495
498
494
495
504
515
525
536
528
536
559
562
537
504
486
493
502
497
491
484
488
514
536
536
530
529
537
533
518
503
485
476
488
505
516
526
537
542
549
559
560
550
553
558
553
533
517
512
513
523
536
516
499
496
514
521
503
482
480
483
474
477
486
497
516
530
540
539
575
632
681
732
777
806
833
837
801
737
679
598
509
433
378
346
338
356
371
392
396
397
418
436
447
450
448
447
453
446
450
461
470
471
467
455
449
462
459
460
464
476
502
521
512
503
502
488
486
486
497
491
476
482
496
513
515
517
520
501
489
500
500
488
494
509
512
514
527
531
533
530
519
505
518
534
547
550
558
563
551
551
563
572
586
585
581
582
580
581
590
594
587
578
573
560
565
574
575
578
576
557
567
584
600
612
617
606
607
576
534
523
538
546
528
514
500
513
527
527
523
512
480
475
480
472
448
435
447
447
426
410
379
355
384
425
431
429
428
425
430
417
411
403
398
398
415
424
426
423
423
435
437
431
435
443
457
475
469
470
455
447
456
462
460
455
465
483
500
503
487
449
437
458
464
474
469
442
441
458
492
527
530
522
506
475
467
464
476
490
485
471
470
473
500
507
500
518
525
504
483
485
508
525
532
517
504
487
474
469
480
494
504
502
499
498
490
483
486
501
506
496
508
509
505
499
469
472
503
521
514
518
504
486
499
517
528
528
528
530
557
540
499
463
458
457
454
461
470
481
480
488
516
532
519
499
480
454
468
498
529
545
524
496
491
485
487
502
503
495
499
515
516
507
515
527
537
536
510
479
485
489
486
463
468
494
515
528
520
508
506
512
517
519
522
517
502
476
473
492
497
493
490
482
491
489
513
529
496
495
512
508
517
517
505
508
505
491
468
470
493
504
507
522
528
518
526
543
519
512
504
491
484
498
491
478
503
523
507
515
520
510
498
510
520
508
495
486
485
466
470
490
491
478
487
512
531
530
524
515
503
491
500
504
505
493
489
500
524
540
534
529
503
480
482
507
516
501
497
521
523
531
526
509
484
482
510
503
508
516
526
511
489
477
480
476
481
511
534
565
615
698
777
839
881
886
844
781
709
618
527
438
363
328
343
353
338
354
374
401
425
465
494
499
493
491
472
468
464
459
466
483
500
498
498
484
482
496
488
484
479
492
488
476
470
483
491
495
484
457
428
442
509
563
580
564
540
522
525
560
579
533
501
502
504
501
496
522
554
567
553
533
528
514
519
523
510
520
521
530
547
565
581
584
584
596
607
601
604
596
589
582
572
561
584
643
669
669
686
692
674
648
623
592
583
597
618
631
639
626
610
581
557
569
585
581
573
563
573
561
536
527
526
513
484
465
448
450
444
440
430
420
374
368
431
470
494
504
498
467
429
411
387
377
407
451
478
470
459
469
455
443
457
461
438
434
446
454
443
440
444
442
440
445
457
467
472
464
464
473
469
448
432
419
433
448
457
462
462
473
484
491
497
493
492
475
461
446
441
442
448
463
496
527
523
496
457
452
444
424
408
410
428
450
482
491
512
490
462
459
464
458
448
450
473
516
530
526
504
487
474
452
446
454
462
454
452
476
491
502
494
462
455
477
481
477
499
508
473
408
391
407
437
479
516
537
536
520
487
468
496
501
485
475
467
462
453
441
444
471
504
525
529
522
501
484
480
498
512
505
477
465
483
496
501
488
475
484
496
507
521
525
516
489
479
488
503
547
563
537
491
489
495
493
488
487
491
503
507
502
495
500
510
508
502
501
504
507
532
535
514
511
531
532
530
533
527
516
503
493
499
519
531
539
536
534
529
547
559
580
584
562
515
499
507
522
532
521
506
500
520
525
512
497
506
514
535
551
551
560
542
513
514
517
525
533
542
546
544
551
576
593
585
548
520
515
509
522
517
508
505
516
547
585
590
583
577
562
547
522
500
503
524
509
492
480
485
495
502
509
530
565
606
626
656
724
788
838
849
849
805
756
699
617
513
411
357
342
346
358
379
393
403
421
412
415
420
420
426
433
460
472
469
482
482
491
488
475
458
430
437
472
478
473
471
474
484
484
488
471
455
464
494
523
532
514
504
510
502
478
456
447
477
502
514
513
506
512
528
540
534
525
528
535
538
542
550
555
554
551
541
535
546
569
575
568
555
561
577
577
588
587
589
593
610
607
605
595
592
583
586
615
631
609
579
568
584
591
577
576
595
605
602
603
619
618
604
567
542
532
528
520
502
504
513
500
489
473
454
443
445
458
447
444
456
441
427
424
422
426
427
420
419
420
421
429
427
438
447
450
425
404
414
423
415
406
408
414
435
461
464
440
437
446
474
490
478
461
434
414
415
436
439
444
456
481
500
511
508
495
479
486
494
476
467
461
452
468
491
493
492
501
504
505
494
462
449
461
487
499
494
497
508
503
498
480
479
492
497
496
486
472
475
483
486
486
496
498
508
512
500
504
498
479
481
504
523
514
499
492
490
500
502
498
494
480
483
468
455
463
468
493
498
507
532
533
513
492
482
482
495
509
518
514
499
504
524
531
519
483
464
478
490
490
479
474
465
456
469
503
521
524
525
535
530
514
511
504
493
498
494
504
524
545
556
546
529
501
488
488
493
502
484
462
446
454
494
523
538
539
524
508
513
524
511
505
504
510
520
522
521
505
473
469
482
508
518
514
516
536
534
536
542
554
556
538
520
501
506
499
464
473
496
502
505
504
495
491
517
548
561
548
526
508
501
482
492
507
524
527
532
526
525
530
530
543
559
558
528
496
488
502
529
554
547
524
538
546
528
539
549
558
569
574
560
533
504
476
467
457
475
497
503
524
543
540
519
499
505
526
528
524
518
544
588
645
712
779
841
867
865
841
784
699
614
499
413
367
355
349
351
368
387
400
405
407
432
488
466
451
461
450
431
429
444
475
503
509
502
489
480
486
494
492
499
499
493
485
496
495
493
488
497
509
509
515
522
529
519
514
505
505
494
463
463
503
532
551
555
561
554
541
542
573
564
549
532
514
517
544
559
582
604
601
583
547
519
510
520
556
579
579
569
583
587
574
577
592
601
605
609
610
626
643
660
658
634
617
611
615
618
586
573
573
579
576
571
578
557
543
533
519
518
520
523
524
532
516
487
479
491
491
482
465
456
465
466
464
456
445
456
452
430
417
403
393
381
399
415
426
442
442
450
453
449
449
447
436
426
434
453
486
503
496
484
463
442
438
431
436
462
479
465
460
470
492
507
510
504
479
472
464
448
426
436
464
488
481
478
490
498
499
503
492
478
490
502
510
507
507
501
493
486
477
470
486
511
526
534
537
530
516
496
481
472
456
462
477
482
478
486
499
498
495
512
533
521
516
531
525
520
518
519
508
505
504
531
547
541
533
529
527
539
551
539
513
509
512
513
503
485
496
522
528
527
518
526
528
538
543
546
555
547
534
515
525
512
517
515
498
499
518
536
537
543
542
534
516
505
501
502
516
523
520
519
522
514
512
511
516
523
519
513
539
538
509
504
524
549
570
586
591
569
514
471
452
454
477
507
509
514
518
510
513
507
496
495
499
512
527
544
559
554
540
543
559
531
520
529
539
563
575
570
546
527
512
502
506
547
572
575
555
532
535
547
546
549
542
528
527
522
508
518
529
555
548
536
543
545
538
548
579
618
674
734
810
878
900
879
825
789
724
629
530
448
383
340
331
340
359
389
420
438
448
468
475
477
468
459
477
484
470
479
483
495
502
496
505
504
490
487
487
494
497
504
494
493
496
494
498
500
498
525
521
503
493
502
529
549
551
531
534
536
537
545
555
551
544
543
556
559
541
522
521
538
542
562
586
593
589
569
543
547
562
581
580
570
570
584
603
595
590
595
618
645
654
657
649
632
628
617
607
601
599
596
585
594
596
604
587
585
590
594
582
555
543
547
551
546
529
505
508
502
500
503
512
508
495
452
416
420
452
449
433
414
403
413
406
404
417
426
427
403
388
396
398
406
432
446
465
450
440
442
439
417
391
396
413
437
481
490
476
480
496
498
483
486
476
467
463
463
457
453
457
477
493
496
490
500
519
525
521
515
496
474
459
440
453
480
504
510
515
522
513
475
463
482
499
526
497
464
477
508
502
496
505
528
552
550
530
536
518
509
503
496
502
502
485
485
499
520
533
514
504
510
534
541
554
569
568
541
504
478
484
491
493
514
509
493
505
533
541
533
523
518
516
519
508
523
529
519
506
512
519
512
526
533
545
553
562
570
567
560
533
493
478
488
506
512
487
484
495
494
495
518
523
509
494
484
492
500
495
497
498
507
512
513
499
517
525
532
528
529
548
559
541
512
508
534
555
554
520
510
514
504
507
514
506
499
506
526
541
527
493
480
471
469
481
494
495
486
507
520
536
549
605
688
743
814
868
886
864
816
758
682
590
489
400
358
337
344
351
351
366
381
406
424
436
451
455
469
501
522
532
519
498
493
494
493
506
517
504
501
497
505
513
511
514
511
518
507
499
503
509
512
513
543
548
555
562
561
554
539
538
536
534
538
545
548
554
549
548
525
519
531
551
564
542
545
561
566
578
574
572
571
573
575
573
584
588
597
611
612
608
592
597
605
602
599
601
602
619
631
624
609
611
609
603
604
614
609
577
558
555
566
582
585
575
574
572
558
537
548
561
540
507
469
452
447
451
466
472
474
469
470
450
444
444
419
384
373
390
409
414
420
428
450
466
451
432
426
425
424
419
437
462
479
471
453
446
448
450
448
441
426
447
457
455
457
470
489
491
482
473
462
474
482
484
496
496
475
473
498
518
512
505
492
482
471
470
468
479
490
483
483
478
476
480
483
499
495
470
471
478
492
494
485
472
472
503
522
511
491
482
469
461
465
469
466
472
502
520
499
473
481
488
506
500
508
503
483
477
477
482
488
492
509
512
496
496
489
492
490
488
478
478
492
517
513
493
479
483
496
498
508
522
523
508
496
505
516
533
543
558
553
541
534
516
513
515
515
521
525
518
514
512
506
479
470
477
495
512
518
515
529
575
606
641
705
768
834
867
859
821
766
695
600
510
447
385
354
348
330
343
353
392
432
425
416
431
455
478
486
477
469
471
481
469
468
468
478
497
507
471
444
459
482
484
471
457
459
483
503
512
523
516
506
499
495
504
516
525
522
503
492
484
470
490
544
574
553
529
509
510
523
524
525
529
524
505
515
530
544
559
559
545
551
555
551
550
561
577
590
591
585
588
576
573
596
596
589
584
578
566
568
585
595
588
588
580
582
594
580
567
555
542
529
523
521
522
543
563
577
542
499
475
467
457
463
460
461
450
441
434
421
433
435
421
417
413
418
431
450
454
428
402
396
387
408
424
425
434
438
442
439
437
461
482
503
513
488
474
467
465
453
444
449
470
486
478
457
458
459
451
456
489
528
540
505
480
471
476
459
472
522
545
544
541
511
474
470
494
478
470
461
451
472
496
496
500
506
503
500
497
494
486
483
485
514
521
522
515
509
498
487
490
507
523
509
503
522
521
516
494
475
458
448
470
498
497
492
499
507
491
482
501
511
522
540
529
527
532
534
507
490
487
487
501
522
516
479
464
498
513
478
460
504
527
527
526
501
487
484
488
504
509
519
521
527
533
540
530
531
535
543
545
528
515
506
510
519
519
505
513
506
459
448
477
497
496
497
506
517
495
484
493
528
540
567
597
645
708
772
817
842
845
796
727
657
582
523
459
370
334
324
315
333
373
405
413
427
440
469
487
451
431
461
477
477
465
456
459
474
484
470
469
487
496
495
480
470
480
498
493
467
467
489
522
535
519
496
480
462
465
470
462
498
536
542
525
506
505
547
567
575
565
538
528
539
531
510
486
471
474
494
504
519
556
576
576
588
583
575
555
544
549
570
574
575
588
598
603
601
595
586
584
573
558
562
573
594
600
604
583
568
559
541
521
516
531
570
593
584
571
551
528
496
477
456
462
479
480
462
449
437
430
413
406
402
397
420
448
431
414
419
433
450
458
454
451
445
422
404
403
404
413
424
419
414
444
473
463
437
420
421
430
441
457
461
466
484
497
499
485
486
496
508
495
476
472
454
446
460
476
477
467
472
472
466
483
477
466
475
484
478
477
488
508
503
490
490
487
504
519
521
512
507
513
512
494
490
490
495
490
482
467
471
495
528
513
491
484
503
500
488
488
502
495
492
500
501
491
481
481
482
497
517
533
544
540
530
526
531
532
523
517
516
510
486
475
481
479
477
498
508
492
503
526
517
500
512
522
525
512
503
495
500
494
491
496
492
494
529
564
569
555
534
515
500
512
528
516
497
490
486
497
523
526
523
512
520
531
493
478
485
478
475
491
496
510
535
558
588
619
649
717
786
803
812
796
754
684
616
557
489
413
376
364
349
353
371
388
390
410
439
453
461
473
472
472
465
451
446
460
469
475
480
483
497
508
511
507
481
461
468
475
491
491
482
472
470
480
492
493
503
516
534
526
497
495
495
508
531
539
541
535
515
520
536
547
534
515
518
525
540
534
517
525
539
544
543
549
548
548
557
541
544
563
573
572
580
576
565
582
604
619
601
577
585
603
605
607
623
637
621
596
582
575
554
547
530
525
547
583
591
564
544
519
509
512
513
513
506
492
489
483
457
452
451
455
451
433
421
415
407
419
431
428
417
409
430
427
428
441
441
421
423
443
446
432
442
465
475
472
453
447
458
478
484
458
438
430
440
455
450
452
460
481
503
516
516
515
508
491
481
494
479
455
453
461
477
484
479
479
488
492
495
504
512
499
490
498
508
519
525
519
505
513
516
514
510
490
487
484
479
479
497
507
486
467
471
478
485
500
510
504
511
527
528
529
528
518
507
500
500
502
497
513
534
536
515
487
463
457
497
536
542
523
510
533
548
518
494
472
484
497
503
500
496
512
522
512
496
486
496
511
524
524
539
547
516
496
501
512
533
536
528
529
533
525
518
542
565
580
550
510
488
480
495
524
542
534
522
519
517
532
545
538
527
519
529
522
529
527
506
517
527
519
510
538
558
557
551
542
537
545
552
555
549
543
538
544
547
546
532
512
516
526
523
531
558
557
546
526
504
505
508
508
499
510
530
539
511
467
460
514
554
580
598
612
604
600
570
531
528
536
539
530
533
540
535
544
541
532
547
561
559
538
519
520
513
505
510
493
472
493
523
567
590
603
637
685
737
795
849
881
854
794
730
654
553
468
406
381
383
384
386
386
417
442
455
455
442
454
486
483
476
471
471
484
493
491
492
491
509
530
514
517
522
514
515
514
516
509
493
483
493
505
493
497
506
504
512
524
522
527
521
515
523
520
516
529
535
538
543
553
552
544
546
550
562
543
523
533
563
570
561
559
571
575
593
620
616
604
583
576
578
572
585
579
579
581
568
566
583
594
581
591
614
633
616
610
612
626
619
620
617
600
562
543
552
558
562
576
579
543
499
501
516
516
532
525
491
481
467
439
440
452
461
465
449
444
445
457
470
474
470
467
440
420
408
419
441
446
435
423
401
391
395
425
438
451
463
458
434
426
427
434
444
465
460
448
448
459
467
473
484
501
513
489
463
465
468
463
456
468
472
478
476
453
463
492
488
469
468
475
474
470
467
463
464
468
469
487
501
506
493
477
474
487
509
520
524
515
513
520
525
530
523
520
518
503
496
492
490
479
484
492
508
518
523
515
497
495
520
514
501
498
502
507
503
518
532
527
513
502
500
496
481
468
465
482
502
523
542
548
541
520
531
525
510
513
502
489
492
487
494
517
534
534
536
524
504
500
510
532
542
527
518
514
519
533
542
534
542
551
552
556
545
531
534
539
552
545
523
524
527
528
527
530
526
524
526
536
529
497
492
502
506
499
503
499
500
506
512
518
520
519
494
480
488
493
494
495
505
517
519
510
500
504
514
527
518
524
522
506
507
510
507
513
508
509
503
493
482
481
492
497
505
507
504
489
485
506
501
476
474
479
484
493
502
495
496
510
519
515
514
513
520
527
537
528
501
499
496
497
518
539
545
524
510
520
538
545
550
553
530
500
502
517
516
519
505
508
506
496
501
512
510
506
501
488
504
523
519
522
531
556
609
683
757
819
855
859
829
754
654
583
523
480
436
387
366
336
332
356
396
422
446
461
458
440
444
467
469
469
460
456
471
461
451
465
487
489
488
478
473
473
490
495
510
524
519
511
515
506
495
489
485
502
504
492
482
493
499
489
483
501
495
495
519
530
534
531
529
528
542
560
553
541
542
537
539
561
570
556
546
555
573
570
574
570
557
562
564
553
547
550
568
590
583
582
600
584
565
592
611
615
615
625
628
624
634
619
587
574
575
562
553
565
585
584
550
524
523
527
510
492
474
470
472
464
457
462
458
458
463
459
457
429
405
393
389
403
424
441
441
436
417
418
426
422
435
436
427
440
445
445
458
439
417
416
430
429
427
433
448
458
466
465
453
440
438
448
457
462
465
461
471
485
497
500
517
536
521
476
452
437
430
440
467
490
482
467
477
509
504
498
496
491
492
496
486
495
498
493
484
472
472
480
496
506
494
485
475
460
469
496
496
508
521
500
471
468
483
483
468
459
465
466
484
508
502
503
514
520
509
498
495
486
479
482
493
503
512
520
517
501
482
484
486
493
502
520
532
533
525
507
484
499
513
509
486
476
494
515
509
493
491
498
506
508
528
534
514
491
477
489
512
527
529
521
511
511
520
522
521
521
516
506
489
497
520
521
519
515
515
509
511
513
511
503
493
514
532
535
533
524
527
536
551
559
542
517
491
500
521
525
513
500
505
501
503
516
518
517
507
501
505
516
528
530
543
552
546
543
534
511
504
500
480
482
497
524
551
553
542
532
532
532
524
510
514
532
545
552
550
532
520
533
532
538
553
543
519
511
513
507
499
509
514
510
502
492
496
498
491
493
482
484
502
513
522
537
563
575
604
648
703
785
839
859
848
796
717
643
564
475
407
366
348
349
353
354
344
371
409
423
431
443
454
460
482
481
491
489
462
460
469
467
465
464
464
461
478
504
504
508
512
510
492
476
480
485
494
503
509
503
492
493
503
509
521
528
533
534
520
517
515
503
508
522
538
533
509
524
541
538
546
575
590
565
547
534
535
551
556
556
568
580
577
568
560
554
559
573
586
573
569
578
577
571
570
594
598
601
603
603
600
594
603
623
633
622
607
584
573
546
543
558
555
531
526
528
521
513
519
475
460
490
510
506
490
468
457
442
417
401
399
412
434
447
458
466
450
432
436
450
458
460
457
438
432
456
467
452
441
445
455
449
467
472
436
412
415
426
429
442
454
462
487
504
511
502
488
471
473
469
436
435
449
452
469
497
524
531
520
494
478
464
468
479
491
504
506
498
507
488
474
476
478
483
498
507
486
485
488
471
464
468
472
479
505
508
483
485
498
512
516
494
481
480
488
495
503
500
485
486
478
489
471
441
455
486
498
500
490
492
512
527
533
528
500
487
486
467
475
469
489
497
501
505
492
484
484
483
482
478
486
491
489
490
499
507
516
514
509
507
502
490
487
505
521
513
514
504
496
491
493
475
481
494
493
486
455
445
457
487
506
516
517
517
498
500
505
504
495
500
501
498
496
500
509
514
508
503
496
512
519
504
497
484
483
506
493
479
483
493
505
506
506
520
532
521
533
519
479
464
475
488
495
503
510
502
500
498
507
523
516
521
525
514
524
545
546
546
545
518
517
556
544
525
518
522
526
532
540
506
499
524
547
543
525
509
497
493
479
474
495
513
517
505
499
515
524
509
519
533
531
545
566
589
629
679
748
828
885
891
840
755
658
562
470
389
339
331
346
356
358
371
402
424
446
461
456
440
434
447
456
460
464
464
474
473
469
470
468
454
459
478
500
514
506
493
486
478
473
474
462
462
480
485
492
504
521
523
509
508
510
509
520
514
491
498
523
537
526
513
507
513
531
540
563
587
593
584
580
553
539
531
534
537
550
573
585
585
590
605
608
610
611
608
601
595
588
583
588
605
616
621
628
626
623
621
627
626
623
623
601
578
574
574
571
567
559
547
555
559
550
530
517
494
478
473
479
502
488
470
462
454
441
426
429
456
482
483
473
454
420
389
393
410
426
432
434
420
419
425
423
420
430
463
491
487
475
460
445
438
450
450
435
429
436
436
453
470
473
460
452
457
465
488
489
472
468
476
479
479
485
498
503
481
472
486
500
501
501
504
502
496
489
491
496
503
500
503
489
474
457
449
464
484
491
485
480
485
500
510
484
473
481
485
481
471
484
495
510
512
523
518
513
508
512
515
493
475
484
504
518
507
489
489
487
483
471
471
477
492
505
497
486
477
483
487
484
484
506
517
513
501
500
516
525
517
509
502
507
497
491
513
513
504
491
493
512
523
516
509
479
454
445
451
470
463
465
487
506
511
512
517
519
516
516
524
526
518
511
518
500
488
491
493
491
503
528
518
503
503
511
487
474
476
488
502
504
489
474
477
488
511
516
511
497
482
478
481
499
539
546
523
495
467
462
470
470
477
495
510
527
536
522
509
511
493
477
486
510
525
539
537
527
521
515
512
522
540
535
520
515
512
510
501
484
487
494
480
478
497
526
525
515
516
516
512
503
503
513
541
592
656
728
811
866
894
885
833
750
654
553
468
412
383
369
353
347
358
365
395
412
427
453
448
426
427
438
430
422
452
498
512
506
482
458
438
438
450
451
469
493
495
492
495
485
498
506
505
498
506
520
531
530
522
525
507
464
457
479
483
482
515
547
535
530
538
534
526
533
528
517
520
514
509
525
544
556
546
546
556
552
566
582
585
578
579
588
578
579
588
606
617
618
619
618
609
617
591
568
590
615
622
615
607
593
588
579
569
590
578
552
541
520
518
531
540
555
558
537
544
523
484
469
471
465
472
478
458
445
430
430
424
425
432
421
414
428
444
443
439
429
406
406
406
421
428
407
405
424
440
450
447
438
451
481
505
477
444
435
432
423
427
460
471
477
485
502
525
513
485
481
484
476
476
475
482
496
496
491
496
488
500
517
510
497
487
504
504
484
480
484
487
497
495
489
487
494
515
513
488
480
508
522
514
515
521
518
498
503
502
481
468
475
499
527
541
527
520
525
503
490
492
503
512
518
516
528
523
522
523
498
488
496
520
555
572
558
541
527
517
516
516
523
520
508
504
519
527
526
516
521
531
538
526
496
491
491
488
496
513
529
527
524
520
516
520
518
512
515
526
540
546
537
517
517
522
526
536
534
530
532
523
510
513
527
536
535
536
538
543
543
537
538
517
480
470
475
497
515
533
544
530
510
507
541
558
540
512
500
495
500
504
520
540
541
528
544
556
552
542
522
516
518
520
523
541
551
569
566
552
543
527
514
527
546
546
544
559
564
564
567
549
520
521
515
516
492
479
492
515
517
511
513
501
492
506
544
580
631
703
768
824
864
897
908
860
772
673
570
489
426
371
316
276
268
311
354
382
402
421
438
451
470
473
481
481
468
468
469
463
455
466
480
505
512
515
499
512
521
517
505
508
505
495
482
476
486
483
510
533
532
514
500
503
495
494
508
515
533
539
533
514
503
514
531
530
521
527
550
558
573
585
582
576
570
559
547
553
567
582
591
591
581
573
581
587
597
604
600
599
613
616
619
619
618
596
573
585
597
606
609
623
635
631
622
610
604
603
595
605
586
581
565
552
533
519
516
509
504
504
512
524
508
483
471
468
461
455
452
447
440
447
446
441
454
464
470
460
434
414
405
403
423
440
443
456
456
452
449
436
454
478
482
475
477
512
536
527
504
495
469
446
440
447
462
477
491
502
514
504
485
487
504
507
521
509
501
485
482
489
515
514
518
517
516
503
