884
950
1016
1023
1023
1023
1023
1023
1023
1023
1023
1023
1023
1023
1023
1023
1023
1023
1023
1023
1023
1023
1023
1023
1023
1023
1023
1023
1023
1023
1023
1023
646
337
179
97
53
30
17
10
6
4
3
2
2
1
1
1
1
1
1
1
1
1
1
1
1
1
1
1
1
1
1
1
1
1
1
1
1
1
1
1
1
1
1
1
1
1
1
1
1
1
1
0
1
1
1
1
1
1
1
1
1
1
1
1
1
0
1
1
1
1
1
1
1
1
1
1
1
1
1
1
1
0
1
0
1
1
1
1
1
1
1
1
1
67
214
371
516
663
838
1019
1023
1023
1023
1023
1023
1023
1023
1023
1023
1023
1023
1023
1023
1023
1023
1023
1023
1023
1023
1023
1023
1023
1023
1023
1023
1023
1023
1023
1023
1023
1023
1023
1023
1023
1023
1023
1023
1023
1023
1023
1023
1023
1023
1023
1023
1023
1023
1023
1023
1023
1023
1023
1023
1023
1023
1023
1023
1023
1023
1023
1023
1023
1023
1023
1023
1023
1023
1023
1023
1023
1023
1023
1023
1023
1023
1023
1023
1023
1023
1023
1023
1023
1023
1023
1023
1023
1023
1023
1023
1023
1023
1023
1023
1023
1023
1023
1023
1023
1023
1023
1023
1023
1023
1023
1023
1023
1023
1023
1023
1023
1023
1023
1023
1023
1023
1023
1023
1023
1023
1023
1023
1023
1023
1023
1023
1023
1023
1023
1023
1023
1023
1023
1023
1023
1023
1023
1023
1023
1023
1023
1023
1023
1023
1023
1023
1023
1023
1023
1023
1023
1023
1023
1023
1023
1023
1023
1023
1023
1023
1023
1023
1023
1023
1023
1023
1023
1023
1023
1023
1023
1023
1023
1023
1023
1023
1023
1023
1023
1023
1023
1023
1023
1023
1023
1023
1023
1023
1023
1023
1023
1023
1023
1023
1023
1023
1023
1023
1023
1023
1023
1023
1023
1023
1023
1023
1023
1023
1023
1023
1023
1023
1023
1023
1023
1023
1023
1023
1023
1023
1023
1023
1023
1023
1023
1023
1023
1023
1023
1023
1023
1023
1023
1023
1023
1023
1023
1023
1023
1023
1023
1023
1023
1023
1023
1023
1023
1023
1023
1023
1023
1023
1023
1023
1023
1023
1023
1023
1023
1023
1023
1023
1023
1023
1023
1023
1023
1023
1023
1023
1023
1023
1023
1023
1023
1023
1023
1023
1023
1023
1023
1023
1023
1023
1023
1023
1023
1023
1023
1023
1009
960
927
920
949
980
1018
1023
1004
971
952
966
1006
1014
1000
1023
1023
1023
1023
1023
1023
1023
1023
1023
1023
986
913
834
789
762
735
704
692
701
685
671
690
725
751
773
769
766
746
713
716
724
736
746
720
705
695
719
728
729
760
789
808
779
723
656
640
659
669
659
653
655
648
659
685
664
628
638
638
630
645
659
686
724
748
749
733
671
659
692
710
675
657
633
585
565
570
579
611
613
632
621
626
628
616
604
630
656
667
684
694
651
598
579
625
661
655
626
615
586
567
587
605
621
638
647
616
593
581
561
556
580
592
588
577
544
491
469
458
472
433
421
463
459
440
449
444
437
435
426
403
384
357
316
303
323
358
362
349
343
319
302
269
229
212
236
274
295
306
280
246
209
184
198
222
228
231
221
213
230
267
280
241
202
190
214
245
241
225
235
230
236
239
198
225
284
302
307
310
285
254
241
216
223
233
225
178
166
211
248
275
288
284
285
275
256
227
211
230
253
269
266
247
235
246
247
249
277
310
302
257
219
219
240
238
235
235
251
250
263
282
277
258
231
217
223
200
157
156
195
232
272
274
229
185
174
185
193
229
268
263
216
146
113
110
118
116
117
144
141
139
145
138
153
194
213
217
212
215
191
161
122
91
79
102
155
190
196
201
222
225
226
178
119
125
145
159
150
127
124
137
156
191
196
170
148
121
104
100
158
182
138
94
103
123
120
141
157
160
157
164
184
195
173
147
126
109
108
84
47
64
115
152
155
130
125
137
140
131
142
162
179
140
115
105
105
135
154
115
67
63
72
85
108
115
113
113
87
75
88
103
114
133
129
145
153
113
117
145
145
128
142
170
178
175
148
131
125
127
128
128
109
81
74
53
66
121
175
156
141
168
157
137
75
38
22
44
82
125
130
93
81
76
80
83
77
64
68
129
207
262
355
455
479
475
481
422
324
245
195
137
79
42
22
13
7
5
3
2
2
13
14
7
4
5
20
31
35
17
9
5
3
2
12
56
96
80
40
20
11
6
3
13
39
36
35
27
14
7
4
6
4
8
7
4
3
2
10
25
43
61
66
67
41
25
38
55
43
21
11
6
3
2
4
7
4
6
16
46
48
43
48
58
48
25
17
39
66
78
135
164
110
80
107
122
130
128
108
103
119
128
112
113
131
128
137
127
134
151
130
93
90
105
103
89
100
67
34
42
85
137
165
175
124
62
31
16
9
18
51
71
67
46
24
12
7
4
3
11
36
25
13
7
4
2
8
6
3
22
36
49
32
16
8
4
10
24
16
18
23
14
7
10
22
13
7
5
50
92
98
112
111
77
45
23
14
32
84
111
93
84
107
132
114
99
100
94
89
86
81
90
115
128
138
151
144
103
81
64
54
79
147
168
154
119
72
36
40
88
137
132
131
129
120
77
75
111
142
143
147
134
131
121
130
126
131
151
162
131
66
49
136
205
205
177
122
65
106
141
117
93
84
90
108
139
134
124
111
99
117
126
102
83
128
159
172
147
146
151
135
157
161
135
128
140
131
121
140
142
107
94
98
143
173
156
143
131
120
114
126
129
141
165
164
162
158
155
153
118
87
90
112
120
122
116
107
123
165
202
202
174
164
121
95
73
96
145
168
195
228
262
239
178
152
171
179
178
157
155
152
131
151
190
190
192
187
168
177
202
201
160
165
223
249
232
208
201
221
216
197
167
163
207
240
233
200
191
208
217
226
213
218
257
254
240
232
227
251
264
251
232
251
280
307
297
242
227
233
245
253
215
168
151
174
202
223
236
255
264
265
268
280
283
287
282
284
283
292
303
275
283
286
307
270
209
195
217
236
239
251
261
264
272
259
248
231
195
182
179
197
217
230
236
269
274
297
302
330
358
446
551
589
598
601
599
544
492
421
318
207
112
68
58
62
116
171
183
140
129
172
198
214
182
138
121
127
133
166
210
218
189
210
218
247
269
259
245
229
235
243
208
174
194
253
279
279
265
222
170
179
209
236
246
233
238
267
295
281
266
282
278
257
241
247
295
327
351
332
269
235
242
262
284
324
351
351
316
254
248
284
309
321
345
342
338
341
349
361
381
363
316
318
330
350
375
401
380
362
342
372
402
404
427
441
418
403
398
397
380
361
363
336
327
352
347
335
337
338
345
350
339
332
322
328
324
283
245
254
294
300
297
309
318
295
251
223
195
187
188
183
184
182
198
193
200
187
172
196
212
243
271
297
303
276
225
194
185
187
206
224
226
239
234
215
218
208
213
222
253
278
252
215
209
263
253
249
281
293
299
298
287
307
363
372
318
258
199
181
188
229
273
285
287
294
289
255
250
267
260
244
245
277
322
353
341
336
300
270
256
253
239
240
239
250
268
263
268
265
278
282
297
329
319
296
273
275
272
254
222
213
245
275
302
330
344
329
274
242
252
269
275
280
273
276
283
298
304
298
303
313
305
290
298
282
236
214
238
274
317
340
329
302
310
304
295
284
290
301
306
315
307
298
284
276
295
295
272
261
289
301
302
300
278
251
269
305
333
318
316
308
299
306
308
292
302
320
306
299
307
305
289
293
310
299
303
318
324
313
299
265
261
267
272
310
326
329
322
302
316
338
352
351
339
319
285
271
283
310
347
351
355
362
365
347
325
313
326
316
330
328
327
310
317
352
379
398
369
323
337
354
352
351
343
346
349
327
335
389
440
438
412
365
328
328
314
305
343
372
367
368
380
390
380
369
350
359
364
384
412
424
417
391
365
368
362
337
338
348
372
355
360
389
411
423
404
380
354
334
342
374
404
400
358
320
312
334
340
318
322
338
308
291
310
318
326
396
501
586
643
693
736
748
759
711
616
515
451
414
364
280
244
210
173
136
149
191
200
240
257
267
276
285
292
299
302
320
326
303
292
303
300
334
369
386
383
344
281
270
295
316
342
339
301
279
315
369
373
361
346
326
325
342
360
342
320
319
332
356
395
398
401
430
444
418
372
334
298
287
308
363
422
440
442
442
431
450
474
448
417
413
422
414
400
406
410
413
441
427
397
401
404
415
434
429
437
442
462
455
434
442
448
442
523
603
609
536
440
382
402
425
435
434
438
446
454
461
464
428
407
402
358
345
366
364
358
337
331
322
333
353
411
418
366
331
311
287
301
312
320
329
309
273
245
276
332
325
339
384
402
379
373
363
332
312
284
240
216
241
276
280
276
289
279
277
335
383
403
358
301
282
318
357
362
359
344
355
422
477
481
445
403
363
321
325
309
326
363
399
387
342
326
357
370
362
358
337
346
366
417
442
445
437
436
422
366
347
371
394
432
441
410
366
373
385
382
364
336
341
373
408
415
402
378
347
329
341
362
383
432
424
398
384
400
426
451
445
424
357
319
335
349
392
424
432
436
438
418
421
409
407
425
432
407
373
382
427
443
465
521
502
431
391
369
371
392
398
373
369
399
430
451
453
428
435
442
448
449
441
443
439
466
476
413
366
395
412
401
391
395
417
457
479
481
460
459
435
409
418
441
447
430
424
437
449
433
411
421
420
429
437
418
382
356
344
404
452
455
408
385
414
430
427
432
456
445
412
441
454
439
431
423
446
440
416
384
340
340
400
423
400
433
447
451
455
447
436
419
405
411
408
403
383
428
498
472
428
406
406
416
438
436
397
398
421
436
447
466
479
462
446
428
386
383
391
390
423
459
448
425
446
464
475
474
432
415
420
433
444
439
421
442
451
488
492
459
420
382
371
397
422
447
472
506
489
442
420
389
361
366
385
401
427
447
466
499
536
588
655
747
807
838
836
782
686
635
562
469
375
338
310
256
234
263
308
348
365
381
389
396
370
348
351
396
453
473
445
430
400
376
396
403
400
405
419
402
355
367
399
426
443
419
399
433
450
461
441
432
434
441
431
404
397
419
394
385
419
435
451
458
455
440
425
428
444
475
522
563
568
525
466
422
384
382
384
415
458
467
468
470
459
463
482
528
560
530
495
464
439
447
462
476
521
553
522
515
539
569
597
589
568
570
572
561
525
496
476
484
497
496
494
496
508
517
505
487
460
446
455
454
459
455
442
458
505
519
482
467
427
387
361
377
380
381
399
378
390
373
365
368
381
370
382
412
391
349
341
347
327
316
372
397
423
442
450
452
453
427
395
393
361
339
350
383
401
402
376
362
379
400
420
415
425
470
471
463
452
438
462
453
453
456
461
457
446
406
374
399
432
413
428
467
477
468
450
432
433
433
449
470
459
462
471
470
455
434
432
441
458
458
457
456
451
463
467
460
439
430
421
427
470
497
512
497
475
470
472
472
459
443
431
444
477
470
442
413
449
490
501
491
494
495
493
485
476
516
558
527
493
497
474
467
451
446
472
507
506
492
484
473
465
474
484
495
502
500
489
485
486
469
463
480
470
462
489
484
479
485
499
522
538
554
525
489
466
455
457
464
487
491
482
495
490
484
480
504
526
534
503
479
437
442
477
505
520
541
538
528
506
465
445
465
474
498
497
487
471
457
485
507
545
541
539
526
513
523
491
451
434
460
497
527
538
525
485
433
417
450
474
467
467
486
509
518
527
538
539
548
531
501
474
499
503
516
508
481
457
443
471
501
486
493
472
483
512
511
482
475
486
518
537
534
532
492
464
458
471
474
484
497
535
542
539
546
508
467
479
484
483
503
510
486
474
512
548
580
559
526
497
497
494
507
546
518
503
505
504
506
528
536
504
483
489
474
464
455
440
440
486
507
511
496
517
541
558
580
633
707
786
856
877
876
834
778
712
628
572
505
402
345
369
408
426
422
407
409
411
430
434
478
489
449
440
436
447
497
496
495
501
494
463
438
448
451
449
435
444
477
495
499
491
469
483
496
496
486
468
478
514
521
505
473
454
474
492
509
506
509
555
556
524
507
492
504
517
484
475
511
556
540
511
522
516
514
530
546
543
533
522
528
557
569
565
569
588
571
537
510
488
501
532
596
641
659
656
605
547
534
576
591
582
580
575
588
594
594
571
566
578
566
543
527
518
549
553
539
525
514
491
506
536
528
502
492
489
471
484
464
460
451
446
461
481
479
493
468
416
397
407
401
396
365
364
406
427
427
437
457
449
438
423
390
392
399
409
405
412
419
398
393
395
409
433
438
423
414
440
451
436
439
454
443
451
439
402
415
423
424
431
454
490
517
525
485
437
431
426
433
428
422
426
452
479
486
489
506
481
447
436
443
456
463
465
474
474
481
470
461
464
469
488
520
559
544
502
452
430
424
430
445
445
446
446
487
520
518
492
466
467
494
481
440
428
441
490
477
466
471
475
519
558
548
519
501
476
436
407
398
432
465
509
537
514
507
519
540
575
577
568
548
502
461
444
438
447
476
509
514
495
493
489
499
493
528
528
505
465
456
489
525
547
536
515
493
519
557
580
559
531
514
484
478
499
494
497
499
471
471
476
491
510
528
550
575
581
557
516
479
452
445
475
537
537
553
593
604
589
555
538
546
574
558
536
517
489
473
484
508
533
528
523
537
545
535
512
499
465
457
495
527
548
563
547
536
528
530
543
530
518
524
529
526
543
525
487
473
482
512
552
531
506
493
512
540
561
539
478
468
489
509
531
504
447
426
444
483
503
535
521
502
527
544
529
484
472
487
526
544
527
521
504
487
481
503
496
489
502
517
520
528
538
523
499
507
537
534
503
477
494
527
531
540
516
454
445
484
520
500
483
491
522
521
516
507
460
433
451
476
498
510
525
592
656
698
729
787
841
889
903
863
802
735
641
536
479
449
410
376
341
354
405
402
398
395
419
428
407
409
451
479
500
516
542
532
518
515
491
474
461
461
458
454
468
494
492
494
485
485
492
474
486
506
515
512
512
523
521
511
463
494
547
556
546
521
500
475
490
514
543
546
533
549
565
568
573
567
552
523
516
515
500
503
500
520
541
555
572
559
579
585
582
585
593
599
590
574
565
574
611
635
596
560
526
534
547
557
540
545
531
532
556
561
559
568
546
532
564
593
583
562
558
556
583
578
525
475
443
437
472
484
457
433
428
423
443
460
471
463
465
431
390
372
384
395
402
395
403
402
386
402
420
412
417
414
393
366
351
369
400
402
373
354
343
353
367
369
377
401
404
401
384
376
376
383
389
389
364
373
439
470
437
392
407
432
474
487
478
432
401
424
432
433
489
521
526
508
450
407
412
425
452
468
455
423
398
415
455
511
545
538
499
473
447
434
454
467
478
449
437
456
461
441
443
492
507
498
501
495
494
482
494
498
490
532
555
549
509
484
475
463
452
468
473
467
438
423
422
442
469
491
502
486
465
479
525
559
563
534
500
471
436
428
440
448
435
453
486
535
569
564
552
537
461
445
458
465
479
523
531
491
471
493
514
496
476
474
486
515
545
557
541
527
510
499
541
544
511
510
509
499
492
502
527
523
539
530
501
498
527
555
562
540
512
492
474
516
513
476
478
509
531
559
574
546
526
536
557
551
534
509
538
548
522
510
504
519
508
518
530
534
554
543
506
516
554
548
509
507
531
540
527
506
516
544
559
585
581
542
521
530
536
527
506
513
523
522
524
533
523
484
504
539
574
558
536
504
479
459
466
483
515
521
533
539
537
545
530
502
518
522
504
511
529
515
510
516
487
485
487
514
533
534
559
551
535
546
572
606
597
570
542
522
527
535
523
518
505
484
488
529
588
558
529
513
490
444
450
471
457
468
495
516
539
538
525
517
512
498
493
514
529
608
688
766
846
907
928
909
860
812
752
644
532
431
372
354
349
324
305
322
390
451
466
424
445
455
460
427
420
406
433
476
490
453
425
423
433
430
436
447
465
455
434
452
489
488
473
450
464
455
419
426
476
488
474
472
482
490
487
495
519
521
497
474
470
468
459
455
459
466
506
511
472
454
489
498
512
525
533
559
586
611
575
527
497
502
524
547
570
565
545
539
534
533
537
541
553
560
574
605
600
592
594
587
603
625
623
623
631
609
574
568
565
557
568
578
571
562
553
538
513
501
557
622
637
578
494
471
474
480
484
468
459
455
456
455
448
442
426
413
413
412
420
433
455
469
466
439
409
392
373
362
358
400
430
443
460
420
370
398
437
446
440
451
450
427
423
433
448
443
429
458
487
489
490
488
474
448
413
381
406
462
493
501
483
488
458
444
463
464
522
542
521
514
488
437
426
472
512
531
529
493
466
471
471
479
493
499
498
465
421
476
513
513
485
504
518
507
486
470
470
479
508
553
540
497
466
428
415
457
491
486
471
465
477
476
486
511
518
551
564
527
498
499
487
491
502
519
547
543
506
516
524
502
496
488
491
523
542
537
513
494
496
514
499
517
536
509
504
531
541
541
552
550
531
543
535
529
540
568
581
570
561
532
539
572
585
574
540
511
483
494
502
493
538
586
599
597
589
559
546
553
563
582
599
590
566
557
556
507
266
140
74
40
107
352
456
250
741
1023
1023
771
572
491
462
406
242
128
152
288
378
434
462
470
459
459
479
504
509
485
493
492
494
505
494
482
464
477
479
481
487
481
479
510
517
509
491
502
480
460
456
476
489
469
465
476
476
483
492
494
498
495
479
463
452
485
493
490
494
488
528
519
497
500
506
497
481
491
486
468
469
498
559
579
559
552
533
490
482
502
505
485
503
541
537
506
471
460
462
491
507
511
492
501
518
503
489
502
520
515
503
481
488
508
540
604
674
740
835
914
951
970
928
875
788
664
547
466
401
357
377
361
349
344
373
418
437
442
389
356
388
434
469
485
498
511
512
498
480
465
475
504
513
530
526
485
456
473
484
476
518
537
534
497
472
438
441
467
481
470
494
504
503
537
524
509
519
540
534
544
532
521
495
496
510
507
498
499
510
507
529
527
516
522
530
525
514
517
544
526
516
519
553
573
571
584
591
569
551
571
580
588
587
570
557
580
605
623
600
574
598
598
573
562
553
576
579
578
596
613
620
619
606
585
567
547
534
514
519
496
484
528
567
571
536
495
486
481
482
483
487
479
447
421
427
424
433
442
443
433
425
423
434
413
413
431
424
436
464
477
489
503
474
452
446
442
446
446
434
432
438
460
465
464
466
459
452
463
464
479
499
511
530
544
539
542
562
544
499
488
503
501
471
481
532
572
562
560
563
551
541
544
544
544
534
527
534
564
587
551
449
338
353
406
484
527
343
660
1023
1023
1023
901
463
241
129
168
899
1023
1009
512
264
140
75
41
23
13
8
5
3
2
2
1
1
1
1
1
1
1
1
1
1
1
1
1
1
1
1
1
1
1
1
0
1
1
1
1
1
1
1
1
1
1
1
1
26
68
104
112
111
125
135
159
171
173
183
212
236
250
266
304
331
332
324
293
293
313
328
367
405
408
422
431
414
395
406
425
432
447
455
463
473
469
477
493
509
542
538
507
515
522
513
515
511
496
541
577
553
547
562
563
588
598
610
619
609
563
535
552
577
602
623
629
611
597
618
644
647
633
606
582
587
581
602
647
677
677
651
611
582
607
673
684
653
634
637
607
615
642
653
640
618
619
662
675
677
663
639
620
619
648
654
637
611
630
655
652
651
687
711
678
645
662
676
667
652
641
644
646
638
643
639
648
659
630
584
575
598
629
625
620
636
641
608
562
580
610
642
690
704
680
662
688
740
790
849
923
993
1023
1023
984
916
818
684
589
552
535
525
503
488
472
475
489
511
551
560
597
616
593
570
573
590
603
625
644
637
621
603
593
598
581
563
560
582
610
641
663
680
623
557
562
582
572
575
591
600
619
624
621
637
650
655
654
642
627
601
619
633
607
595
608
641
647
651
670
654
613
604
606
646
681
685
677
666
661
671
683
652
634
655
690
690
666
629
619
630
637
672
704
704
689
684
682
673
694
703
681
652
628
672
697
688
691
691
677
669
629
638
660
642
650
665
649
652
638
643
624
624
648
660
601
554
552
557
557
544
543
549
531
489
488
529
589
584
546
515
503
494
500
503
491
486
508
529
539
538
553
548
552
538
498
492
483
493
520
553
547
514
514
545
573
590
567
547
565
568
549
546
533
526
553
556
553
529
520
544
582
614
620
606
592
590
604
577
579
611
619
614
613
585
561
557
573
575
566
531
548
605
633
585
556
552
546
534
576
630
625
596
566
554
571
602
578
549
577
605
642
647
602
581
585
592
593
587
579
576
570
565
563
581
582
580
606
619
603
581
569
571
609
626
643
617
602
565
561
596
590
590
590
573
540
525
524
545
585
588
571
581
587
588
576
548
548
563
572
547
548
539
537
568
617
631
598
552
569
593
591
582
577
582
569
560
540
497
497
526
554
569
588
617
588
569
571
576
581
561
559
561
567
596
600
583
575
573
546
529
543
548
550
594
615
585
552
533
507
537
583
586
535
528
568
583
599
597
577
566
580
598
576
544
528
528
546
533
524
545
578
607
598
565
533
543
581
587
551
532
528
561
580
576
582
576
576
591
584
557
570
597
578
538
537
550
542
549
550
553
560
560
547
524
530
578
609
610
591
606
602
581
571
581
592
592
588
609
628
634
598
578
581
596
604
626
615
587
587
582
560
545
573
586
568
561
560
580
617
634
605
546
520
517
519
519
515
533
549
560
593
577
536
534
540
539
572
615
660
693
752
825
878
929
942
936
897
812
702
585
505
449
411
386
381
387
412
429
440
482
514
517
508
504
477
478
476
457
462
468
477
515
539
555
568
577
555
502
486
519
538
545
553
536
493
499
508
524
551
527
490
484
512
548
565
563
531
496
473
504
546
560
583
578
560
551
557
536
505
525
541
564
553
536
549
573
608
610
588
598
604
582
555
592
620
623
611
595
596
598
630
655
628
591
587
607
617
614
606
648
686
671
626
586
580
601
613
606
613
618
606
601
588
582
574
564
581
612
613
584
572
548
529
524
556
589
580
554
528
484
460
423
408
460
472
472
488
481
471
476
474
471
456
448
432
436
455
466
410
420
434
422
462
489
441
404
388
398
409
435
441
443
460
500
510
488
485
475
451
439
475
517
494
466
467
472
481
485
473
468
486
494
513
493
473
470
484
497
517
549
555
524
501
523
521
492
483
505
499
497
519
506
504
511
497
486
513
541
557
548
535
534
531
501
473
517
554
535
522
519
498
488
510
524
533
548
530
485
465
490
540
557
543
521
503
493
500
513
506
497
476
439
429
453
510
523
510
504
512
524
523
529
515
467
434
428
473
489
485
483
461
463
499
516
533
547
538
513
513
511
528
555
564
564
561
557
540
543
516
478
470
471
495
520
528
526
524
549
548
523
531
561
597
583
546
520
513
521
515
505
532
552
543
540
537
550
568
554
539
529
522
538
567
567
562
597
617
628
603
558
524
505
533
558
524
532
577
588
578
542
509
530
558
565
570
534
514
551
583
596
598
600
555
521
521
535
536
529
516
515
514
504
490
480
508
529
538
558
575
559
516
507
522
529
516
510
508
508
503
502
499
517
536
551
537
523
533
537
536
511
486
500
520
531
528
522
528
555
561
548
529
496
490
490
525
556
554
559
560
544
532
525
510
508
496
490
522
569
593
559
529
520
527
534
537
540
538
541
534
523
499
508
521
532
533
541
530
502
490
504
488
468
463
456
459
480
500
540
528
549
638
733
786
853
904
915
898
859
801
682
559
466
400
366
383
399
382
353
361
408
417
400
413
422
425
445
462
451
449
454
489
517
523
488
457
449
464
477
456
451
468
459
464
457
445
440
444
457
480
500
532
523
498
500
499
496
496
517
510
519
517
482
487
494
508
528
521
520
520
512
477
464
465
498
525
510
508
507
509
500
502
538
564
561
581
601
565
545
534
554
588
598
595
583
567
536
520
515
534
555
572
603
597
572
568
563
576
596
587
577
577
550
540
563
608
607
606
606
567
562
564
556
531
501
493
482
481
500
503
483
489
479
471
475
472
476
485
487
482
490
488
484
484
480
439
391
408
423
421
408
394
409
446
459
444
413
412
460
475
457
455
469
486
480
495
493
476
460
458
496
514
522
515
477
460
435
436
451
444
473
510
516
496
496
494
501
511
493
487
474
484
493
495
507
520
491
510
520
505
503
460
456
482
485
510
529
537
545
504
468
495
537
541
528
503
486
505
525
531
502
465
465
505
515
502
510
498
497
495
454
452
521
560
557
541
512
518
515
508
504
520
512
507
502
484
470
450
463
510
538
534
526
503
504
524
517
520
538
542
546
531
541
544
531
515
500
478
453
483
519
527
519
537
523
496
513
545
566
562
557
540
507
495
505
504
480
486
508
513
508
502
541
561
548
510
511
514
507
526
556
567
551
513
489
501
493
506
516
498
492
518
542
536
506
506
515
535
551
547
536
510
496
508
515
519
523
550
545
534
533
532
514
518
522
531
510
476
478
488
506
509
499
507
532
528
505
494
514
533
533
513
503
522
540
537
523
506
511
528
520
496
488
499
487
502
524
544
489
458
512
553
562
598
615
531
438
436
445
460
479
513
542
537
512
502
525
523
518
520
517
495
492
525
550
534
517
522
506
504
527
538
533
516
501
544
554
541
549
550
557
566
567
541
527
508
485
467
459
463
481
523
566
556
523
530
540
551
588
612
588
520
505
511
533
538
527
516
502
503
489
476
452
457
489
490
508
484
447
494
585
616
699
822
900
931
912
864
840
815
751
669
574
468
391
363
373
378
377
392
425
463
475
495
481
460
410
391
418
415
447
439
456
513
530
483
451
441
441
430
435
480
499
489
506
519
508
506
511
525
517
502
467
458
486
509
487
477
495
492
470
454
471
516
544
568
545
505
494
496
503
513
517
527
543
578
591
547
501
503
505
512
548
558
535
518
568
599
600
590
579
578
567
543
517
550
584
605
628
623
602
621
642
610
589
583
563
555
548
571
584
589
573
548
558
572
575
576
575
576
582
571
566
564
575
566
520
481
480
481
484
493
496
494
490
503
486
467
415
401
472
506
474
418
376
376
405
439
462
473
448
429
403
381
398
410
420
420
415
425
447
459
470
465
457
442
420
421
437
466
431
382
404
463
498
523
521
501
482
471
477
442
405
416
464
494
503
505
518
515
498
480
476
469
465
460
457
480
505
526
512
507
496
502
496
485
490
491
470
445
450
461
490
471
447
461
486
522
535
523
507
498
489
481
492
508
527
527
495
463
462
476
479
467
471
485
497
505
506
499
494
491
502
526
549
522
481
457
488
481
444
457
488
505
493
491
491
482
480
493
486
503
539
562
516
474
482
482
478
477
483
488
472
452
458
517
554
541
526
510
507
494
487
479
458
458
489
516
539
578
577
560
566
545
511
488
479
483
480
461
466
477
487
519
542
557
565
562
553
555
524
508
515
516
515
526
543
555
546
540
532
492
487
523
553
575
568
526
484
485
511
554
573
555
541
558
550
532
548
532
522
536
511
521
515
541
573
574
547
541
531
504
488
491
533
531
504
500
517
537
538
519
489
514
536
541
529
535
499
485
507
530
518
523
549
539
530
519
492
461
478
514
506
483
475
499
545
556
542
506
477
472
477
497
514
524
497
504
522
520
499
488
523
528
513
530
562
582
555
536
544
539
534
531
515
510
528
548
561
530
518
537
555
557
564
561
536
501
478
468
487
485
475
484
501
508
497
491
504
479
474
520
572
601
621
670
734
786
844
901
932
919
885
787
695
644
545
438
349
310
302
281
281
333
390
423
442
439
436
448
467
491
505
485
458
445
452
476
480
480
484
480
463
443
459
494
512
525
516
514
508
508
541
561
530
511
507
505
513
514
479
457
480
463
450
520
552
557
558
537
519
532
535
536
539
566
563
527
507
498
519
525
558
597
595
580
567
569
540
523
527
539
544
546
557
581
606
600
569
540
543
546
562
598
627
636
625
627
632
636
629
624
631
628
617
600
587
564
549
547
548
579
598
615
650
628
573
512
502
498
486
488
492
489
484
491
520
544
554
517
488
468
412
395
416
427
434
444
457
468
461
457
414
389
408
394
386
387
415
433
421
406
405
388
404
442
445
460
468
444
456
477
462
460
473
466
433
435
445
432
443
462
449
449
446
461
469
474
472
460
469
538
556
524
496
459
424
406
443
492
522
527
530
533
512
514
519
525
520
508
488
456
442
432
457
439
434
460
480
489
516
519
500
494
498
523
530
523
537
540
515
497
496
485
481
494
471
453
431
426
455
503
531
535
507
478
493
525
531
523
538
532
520
494
475
463
450
470
493
510
481
472
488
526
526
474
458
471
495
522
543
540
523
532
513
490
491
514
524
528
529
541
519
484
464
461
507
532
533
521
517
511
509
503
488
497
528
559
554
546
550
527
514
495
497
506
518
518
523
546
554
529
474
449
457
471
490
511
525
525
524
522
542
539
530
541
535
515
519
530
548
542
513
525
552
549
543
539
525
465
394
450
532
554
547
546
530
518
501
484
505
537
542
536
526
521
541
570
545
503
471
472
473
485
464
481
532
571
585
582
578
554
535
513
504
486
484
483
478
486
498
533
548
533
538
539
556
531
505
536
566
580
551
494
489
521
509
449
484
545
570
573
570
541
525
543
549
528
513
510
508
516
506
513
502
507
502
495
494
481
463
480
512
542
550
542
539
582
649
719
784
851
889
894
878
843
792
691
581
489
434
391
375
367
354
364
381
435
477
494
493
463
431
417
431
460
475
456
429
442
445
450
488
528
536
495
462
435
440
463
485
503
504
507
513
522
504
492
512
527
536
541
543
523
507
469
441
446
451
447
487
515
531
554
572
564
544
533
533
526
521
521
525
535
554
560
564
557
526
520
556
560
536
550
583
582
534
513
511
518
514
515
541
585
597
611
609
601
607
606
591
582
587
576
568
561
584
591
586
586
597
596
595
591
584
575
544
527
511
516
534
529
533
532
536
539
529
481
430
439
456
461
424
423
457
478
490
480
445
442
455
454
454
444
403
390
385
399
392
378
408
448
449
438
453
447
440
434
442
441
432
430
468
455
455
474
457
429
424
431
422
445
470
491
494
487
481
482
495
496
494
490
481
475
468
459
453
483
507
536
561
544
499
448
444
457
436
454
483
495
505
525
524
518
500
462
445
470
499
509
517
514
498
478
493
504
501
489
518
529
498
475
489
493
487
491
515
547
549
498
461
463
507
515
509
482
467
507
533
574
570
518
495
510
504
467
468
477
478
491
495
491
526
574
569
539
502
482
487
503
486
476
473
474
515
571
582
541
492
485
504
499
488
499
514
524
545
542
525
503
487
499
509
478
471
492
523
501
491
480
476
528
580
584
550
517
508
498
477
466
477
506
505
510
537
544
514
497
515
527
499
485
508
496
489
467
480
496
512
530
523
503
510
518
502
513
520
499
488
496
483
472
488
528
538
539
544
530
491
480
481
487
484
506
526
511
489
474
467
471
490
520
537
538
529
510
496
488
467
470
468
444
439
478
512
534
538
508
481
513
535
503
470
459
510
554
561
519
518
526
527
519
512
518
507
508
527
562
562
523
505
489
476
477
464
480
515
526
520
540
541
526
540
513
492
474
462
466
456
473
499
486
484
502
492
488
521
557
579
577
609
652
724
797
855
876
889
843
750
666
578
504
461
409
382
406
408
388
361
371
394
418
442
436
405
426
458
484
482
471
450
431
426
427
445
469
455
460
486
517
505
477
476
456
432
421
429
468
514
521
499
491
495
494
479
465
466
473
471
486
496
509
528
528
532
523
532
537
505
508
536
537
561
576
538
495
492
510
533
561
522
500
485
487
497
506
533
547
566
565
590
612
605
582
583
592
588
596
581
553
558
563
577
607
610
580
538
526
543
587
590
569
568
559
564
569
583
586
574
562
553
534
505
525
549
521
500
530
529
490
451
436
456
472
471
472
498
489
460
433
422
423
429
424
437
441
443
427
421
418
428
422
417
433
461
455
425
449
471
467
416
391
411
439
441
437
460
466
459
449
426
432
454
462
487
490
474
479
503
520
508
480
467
505
523
504
483
485
490
508
519
516
492
474
456
444
451
475
493
481
484
524
547
553
543
526
501
491
484
489
483
483
486
478
493
510
516
547
538
517
521
538
525
506
475
443
451
465
484
500
506
504
486
504
532
525
527
509
504
490
484
498
510
525
524
501
487
496
527
527
526
505
490
513
532
513
490
512
532
539
549
553
536
512
476
486
528
542
549
540
513
471
472
472
478
502
510
530
547
532
556
571
526
489
471
463
477
475
495
551
556
551
556
570
554
532
523
512
512
527
534
553
572
560
533
505
495
470
477
508
484
461
485
518
548
558
554
531
508
490
518
504
530
541
536
548
561
548
513
496
496
491
491
506
524
528
520
516
521
558
552
530
509
504
505
520
489
465
488
506
516
510
520
557
569
543
517
519
527
512
521
516
514
502
487
488
529
560
564
546
522
496
486
478
485
526
534
533
518
491
497
514
531
538
531
513
528
540
522
523
527
538
541
551
560
562
544
530
550
554
545
525
516
503
488
470
456
482
510
533
522
515
517
528
541
546
542
502
493
527
580
633
691
753
817
873
909
884
834
760
692
613
534
484
441
427
414
378
380
415
408
400
391
424
441
449
457
468
482
481
477
467
486
507
495
467
441
433
451
489
515
483
470
462
479
501
510
489
483
487
488
495
492
485
505
537
542
523
516
500
493
512
510
496
477
486
507
541
537
518
539
553
551
529
503
514
531
546
550
555
533
522
521
515
532
579
589
581
564
569
582
586
580
568
557
552
567
591
602
582
559
565
575
574
586
600
623
607
589
582
570
560
569
564
563
577
561
522
507
515
552
558
556
563
567
545
540
526
521
524
508
492
454
425
435
434
433
441
440
446
444
412
403
413
427
458
472
454
409
384
372
374
387
417
452
456
433
400
394
392
421
458
454
436
431
435
454
449
433
427
437
448
435
438
437
439
474
470
419
442
471
486
500
508
492
469
481
504
500
495
474
454
468
473
447
437
447
481
478
460
489
536
548
520
482
458
463
468
480
494
540
536
506
485
473
481
477
482
477
465
478
479
488
507
517
523
495
455
479
498
492
457
445
464
513
525
513
514
508
486
504
512
494
493
519
520
498
491
496
467
473
518
527
533
503
497
506
526
543
527
508
508
523
505
495
496
514
544
524
473
475
469
500
540
549
529
506
498
476
475
491
506
508
506
546
542
494
476
478
482
493
488
480
485
495
527
535
530
510
483
494
536
542
527
516
508
496
499
487
478
463
478
514
547
554
535
519
499
483
468
477
516
547
548
555
543
509
509
518
525
529
503
501
520
527
505
498
516
556
582
582
536
514
511
503
506
524
545
525
509
513
513
520
532
534
534
514
493
482
505
541
543
539
520
486
493
542
544
529
546
528
524
541
542
547
549
536
562
588
571
527
479
485
508
525
533
526
490
480
514
538
539
553
585
606
589
530
498
497
501
518
522
534
523
533
576
600
591
566
556
560
552
522
502
485
481
480
491
496
488
505
507
502
510
524
530
525
518
513
526
559
606
687
740
789
845
861
877
883
837
767
672
562
467
415
358
324
335
389
400
391
375
401
451
453
454
445
452
468
498
500
465
457
441
446
449
434
444
471
485
491
505
525
526
509
490
483
460
436
457
495
512
518
512
497
472
470
477
467
483
515
492
479
474
448
458
516
547
547
524
485
490
530
546
552
558
560
532
508
513
536
554
551
539
519
526
544
544
555
576
587
585
573
582
565
561
552
548
572
596
585
587
587
584
585
595
597
602
628
654
606
572
570
564
573
592
589
597
597
588
589
574
525
509
526
545
529
491
470
480
496
498
447
429
444
446
423
427
471
502
535
529
484
464
452
429
418
420
415
405
402
408
428
472
507
518
493
434
413
399
392
404
423
436
414
403
395
409
431
459
476
484
481
470
465
464
456
469
497
479
445
446
449
462
500
531
516
490
477
482
508
476
442
462
502
533
546
558
564
541
483
440
444
468
488
503
497
496
485
476
499
546
551
513
491
490
475
482
499
527
539
533
508
474
470
490
491
461
470
507
499
492
516
541
561
558
502
461
452
461
487
508
512
507
485
495
523
551
566
553
524
516
478
476
507
506
535
577
577
539
503
491
517
492
456
449
447
466
504
528
520
520
510
496
510
535
535
543
518
496
500
493
513
519
524
537
550
533
518
521
530
519
510
495
485
489
480
471
473
499
534
550
542
514
488
490
513
528
520
507
500
495
506
511
521
526
520
528
531
498
499
500
521
547
527
481
477
499
507
457
457
541
554
540
530
521
506
478
478
512
523
521
543
541
541
536
522
526
504
517
536
501
481
471
496
517
520
540
537
524
518
523
527
506
482
477
480
467
487
504
510
500
525
572
565
538
508
494
478
471
484
495
519
531
539
546
527
504
467
451
494
537
547
525
527
527
521
529
530
506
488
496
487
495
526
522
514
504
494
517
537
536
527
527
520
516
529
543
546
554
551
548
577
593
552
532
529
516
481
490
489
487
496
485
509
541
545
540
513
497
511
506
486
497
498
494
490
493
505
530
565
562
589
671
743
806
882
873
839
815
769
718
629
540
466
414
391
366
380
354
362
413
423
421
435
453
464
468
479
492
466
427
381
388
409
434
469
476
454
451
467
465
450
453
478
515
542
535
514
517
501
494
499
485
476
475
490
535
547
532
510
463
472
503
535
528
527
527
491
474
454
459
508
545
550
552
579
580
544
515
519
533
556
564
575
555
527
516
543
589
593
575
557
564
566
556
587
608
609
611
610
612
603
614
607
584
554
566
564
554
561
569
579
588
598
603
603
609
606
602
595
572
562
561
541
527
514
505
520
537
547
552
537
525
495
481
492
451
425
434
446
466
474
442
430
430
431
430
410
407
418
425
453
477
464
423
408
425
430
424
417
388
411
432
408
392
419
436
433
470
493
507
478
457
457
455
455
432
435
447
451
457
472
490
512
518
482
481
466
440
427
457
507
536
547
542
497
464
458
448
448
446
453
474
478
493
507
551
560
505
480
491
474
478
482
485
493
506
526
525
521
507
482
480
477
503
521
504
509
500
482
508
515
512
503
502
502
495
500
512
504
495
527
537
520
480
456
484
512
533
525
495
472
447
448
470
495
510
502
496
467
478
512
544
530
511
517
526
522
530
512
503
490
493
511
513
517
533
530
519
500
482
485
478
498
515
505
513
513
498
495
494
488
484
502
537
556
548
517
523
541
556
575
564
544
518
491
504
518
515
522
504
487
502
496
484
518
525
517
507
513
528
529
519
509
496
492
512
522
539
558
552
534
538
532
527
535
533
514
508
504
515
523
510
516
543
543
538
515
490
445
425
494
558
595
601
554
498
499
538
525
520
510
496
477
503
543
535
541
530
525
541
514
504
513
513
499
518
532
545
526
525
516
515
516
517
513
492
491
504
505
505
508
511
507
505
513
492
485
510
546
544
520
516
535
542
534
533
520
538
557
523
506
509
507
495
480
518
549
558
543
527
506
513
517
510
515
520
525
531
540
534
499
478
487
493
499
519
540
518
471
471
470
463
474
469
458
481
500
510
524
540
563
595
651
714
760
815
871
900
888
848
761
679
602
520
420
339
306
299
294
304
327
345
348
352
408
440
453
466
451
458
469
478
471
432
425
457
471
462
477
495
490
494
500
488
476
463
440
399
398
477
516
512
501
517
526
525
497
480
482
493
486
501
508
512
525
513
504
514
518
513
522
507
499
491
488
499
535
569
549
539
539
525
538
542
540
576
608
600
561
531
539
553
568
567
553
547
561
601
638
648
632
590
591
610
608
598
575
560
552
583
601
593
584
578
578
584
589
560
541
563
575
571
561
553
552
540
512
510
505
510
513
514
519
484
435
430
450
480
497
496
493
468
432
410
392
389
423
442
438
434
430
469
476
439
412
413
423
420
392
409
424
423
422
443
451
430
417
409
424
443
454
483
476
472
456
470
467
470
498
510
498
453
441
453
455
461
468
459
455
470
466
484
529
511
481
470
482
500
518
483
478
494
520
549
537
503
498
511
508
493
495
510
506
483
453
438
439
448
519
587
572
532
510
490
497
520
523
519
489
468
459
475
511
539
554
560
525
483
454
470
486
497
511
495
487
508
498
495
506
532
537
521
513
509
530
559
571
560
519
484
485
480
478
465
457
475
511
552
553
534
504
494
525
541
542
523
510
507
496
495
487
482
509
522
521
512
507
513
535
544
526
498
496
492
495
514
534
543
542
515
484
469
495
527
513
496
532
551
539
546
548
514
487
483
495
519
528
520
523
492
482
497
512
524
528
540
520
499
489
474
473
500
527
528
515
484
500
545
565
566
544
526
488
491
513
528
539
527
499
499
501
500
503
504
505
514
535
500
473
478
485
502
535
559
576
577
551
535
521
526
512
525
539
530
530
524
535
561
553
535
527
497
478
493
491
468
458
467
506
537
536
530
524
522
542
545
549
544
529
531
544
554
541
565
578
558
556
560
557
519
489
487
514
533
536
543
542
508
470
467
471
494
507
523
538
530
516
524
554
549
500
493
494
499
496
536
579
585
627
693
763
856
913
908
880
818
769
733
649
557
456
383
359
322
319
348
363
349
370
414
460
499
478
423
410
420
438
458
473
505
507
470
460
474
482
476
510
552
552
552
521
469
435
446
476
527
535
508
496
497
515
516
504
481
498
526
541
542
518
521
528
495
475
477
477
501
530
529
530
538
546
547
555
553
531
542
562
584
589
565
569
572
566
557
554
538
529
543
555
545
519
522
570
599
627
625
603
566
558
578
607
622
634
609
587
572
584
594
592
577
568
577
594
607
614
601
574
548
563
583
565
518
480
509
505
496
509
489
495
498
481
471
445
437
459
474
469
467
452
426
417
432
447
458
461
440
421
399
380
387
402
412
429
444
453
438
411
372
401
449
475
465
420
399
440
461
464
470
462
446
442
470
469
455
444
451
477
475
461
471
502
503
510
504
486
448
427
470
508
506
491
486
468
484
506
526
536
510
474
485
507
495
461
465
490
508
509
473
489
513
536
519
490
495
524
535
509
473
455
474
489
508
535
530
478
458
463
464
460
464
475
480
516
546
541
528
527
521
533
519
484
471
456
466
496
503
533
552
547
537
528
537
521
512
500
504
535
547
537
513
497
487
495
506
529
522
513
526
529
516
503
479
499
507
523
530
513
508
515
521
510
507
501
474
489
518
513
499
515
536
537
543
538
508
501
514
504
484
486
538
565
535
498
471
475
494
507
503
535
564
555
516
499
509
481
471
509
543
534
513
506
523
531
524
499
504
500
493
492
481
495
538
538
521
498
522
554
531
504
496
493
512
512
494
516
550
553
531
496
484
499
495
503
518
529
534
530
508
490
486
490
495
521
537
557
545
521
471
450
488
518
520
505
491
508
523
508
490
506
521
535
535
558
583
580
540
528
565
591
560
507
505
535
548
532
528
533
508
501
505
492
474
472
492
517
526
561
550
524
490
489
490
504
516
494
512
522
550
622
694
742
787
829
876
902
858
784
704
592
531
477
399
347
352
387
415
414
413
426
443
437
451
504
496
453
420
448
468
462
460
447
454
436
462
514
539
508
494
491
484
483
464
465
491
515
512
491
501
509
493
472
458
450
481
495
510
524
514
480
471
479
531
553
531
508
486
489
517
535
512
524
544
556
555
543
536
541
545
532
518
516
535
541
533
588
614
564
529
547
568
570
576
584
580
567
570
562
554
555
566
566
580
581
568
575
581
613
614
564
527
527
530
563
585
569
533
538
541
541
541
538
512
481
493
526
528
498
468
470
491
491
461
453
442
416
431
470
497
493
500
498
468
420
406
401
392
380
386
402
398
407
415
426
429
425
424
425
432
437
431
436
452
448
439
471
482
469
459
468
484
486
453
451
485
484
463
442
429
435
453
455
454
468
481
492
497
490
468
484
504
486
468
480
475
472
478
477
478
500
519
508
507
510
462
435
477
499
479
464
440
439
482
520
508
501
487
463
441
456
468
488
506
519
531
521
515
507
494
490
469
469
466
470
478
458
471
472
470
485
496
491
460
457
495
516
501
503
518
532
492
437
460
494
481
461
480
514
515
510
490
467
487
504
509
498
486
488
511
530
550
528
502
511
520
522
524
502
491
510
522
521
510
538
562
519
463
447
454
491
517
531
536
545
541
525
493
499
505
512
499
494
517
545
548
518
511
517
505
512
505
488
488
502
490
499
501
490
475
504
546
550
557
524
507
507
490
489
509
533
524
507
500
485
499
515
527
538
555
552
525
505
491
466
451
503
537
527
510
517
520
494
494
518
529
519
490
480
458
471
537
583
572
539
510
493
495
514
523
496
473
462
472
479
488
523
556
583
591
570
550
523
512
512
533
539
534
522
532
538
531
541
549
529
509
502
475
462
475
503
515
499
493
505
510
514
533
557
580
640
701
766
823
868
868
837
811
753
691
642
558
445
371
345
333
340
378
400
430
450
466
468
454
444
431
401
409
446
473
474
492
521
486
486
482
470
475
491
488
497
469
477
524
534
515
495
490
492
457
484
514
511
498
501
499
533
547
528
503
487
487
495
515
548
551
525
536
516
513
509
523
532
515
499
504
537
583
573
564
592
610
606
572
553
547
553
548
524
520
546
555
564
578
576
582
565
555
558
564
597
621
620
601
597
576
560
573
616
654
677
649
575
518
508
543
573
583
581
554
550
527
523
514
528
531
506
491
492
512
502
495
496
486
483
482
458
439
434
456
497
489
450
420
401
392
407
443
435
428
438
455
441
419
430
444
430
433
420
408
430
427
437
467
467
464
467
475
491
505
495
475
468
481
494
480
460
468
479
439
439
476
506
531
549
571
547
530
521
512
481
441
460
471
472
483
472
487
503
529
519
507
506
503
494
488
483
478
478
524
563
573
574
561
542
508
479
469
473
468
465
491
526
526
534
548
575
571
549
531
492
474
486
499
502
489
491
492
515
511
481
500
505
518
520
518
518
531
510
501
510
510
519
520
517
523
541
551
525
512
518
487
499
535
528
506
496
521
570
578
556
533
503
512
515
507
509
501
493
521
564
550
520
515
502
490
475
475
492
515
511
503
514
517
541
560
539
528
541
532
530
528
523
515
511
510
497
494
522
543
531
514
504
473
463
498
529
539
530
512
489
502
498
489
504
548
571
579
599
580
544
524
490
471
495
491
449
444
494
516
521
544
555
554
571
552
527
516
488
489
500
504
497
496
508
532
547
529
507
525
536
540
547
556
547
568
556
557
538
512
496
505
504
512
522
510
530
559
578
590
549
504
503
530
549
543
538
536
540
541
575
600
569
510
505
509
509
517
525
544
543
527
552
549
504
480
491
481
435
446
475
517
555
559
560
574
559
551
525
475
475
522
571
615
680
733
796
831
860
886
874
802
713
627
526
441
376
331
312
342
363
364
373
416
438
461
467
470
481
480
440
411
407
424
434
458
464
469
487
481
470
472
481
481
468
445
448
472
484
493
492
469
452
457
500
521
519
487
446
471
500
495
458
440
441
499
535
532
495
470
491
509
529
538
535
517
530
550
542
532
533
539
508
495
534
568
575
524
491
516
550
578
559
548
554
538
554
580
578
570
575
586
582
582
585
592
577
546
545
571
606
631
632
604
579
572
548
552
569
577
560
567
577
549
542
527
505
515
517
483
498
546
564
511
440
427
464
476
455
467
495
492
477
459
435
410
411
413
407
428
445
441
423
421
446
433
421
402
368
355
397
433
419
395
419
438
439
476
484
469
489
467
432
408
404
407
436
466
486
492
483
470
486
482
490
512
484
459
461
471
475
487
490
481
478
471
497
508
512
510
491
473
474
464
439
445
458
463
462
473
483
481
484
488
476
446
463
500
515
504
528
559
530
473
410
419
470
476
481
470
470
472
477
485
495
492
506
512
517
495
476
465
470
474
456
438
461
487
501
513
501
498
501
502
484
470
484
498
491
512
513
527
524
517
512
516
515
479
474
490
517
552
549
540
513
491
495
487
488
468
467
500
511
483
485
514
528
536
516
512
508
492
502
532
528
484
471
450
446
488
509
512
545
560
559
571
560
527
492
499
482
479
497
496
484
514
550
505
481
503
534
530
532
531
479
492
512
505
502
543
553
548
522
514
504
528
557
537
516
499
485
505
501
487
506
519
521
542
534
499
484
522
559
550
553
560
548
529
528
514
528
543
518
498
520
521
483
473
478
512
535
531
531
520
513
520
507
524
547
548
520
485
484
519
525
503
502
510
520
531
529
518
545
560
540
504
495
514
537
544
551
549
547
543
563
572
543
488
454
456
507
531
525
522
548
559
557
540
541
550
548
513
487
471
455
473
488
461
457
467
480
482
500
523
532
546
540
571
621
673
745
817
874
900
890
843
778
713
635
544
457
377
307
297
296
311
367
421
422
404
384
408
446
441
446
437
430
476
501
497
500
491
471
441
442
459
479
472
480
479
485
483
476
475
449
478
506
495
506
509
512
499
506
492
448
438
461
498
506
500
490
476
467
482
511
546
569
552
508
494
508
502
501
524
560
578
581
555
570
569
547
537
546
543
535
522
525
553
557
565
567
579
594
589
578
575
600
613
617
590
580
579
571
581
613
630
622
619
585
524
492
556
595
614
612
608
567
544
560
587
580
540
515
498
494
492
487
485
483
483
462
425
414
426
449
449
459
460
483
511
497
474
472
467
451
430
438
457
438
407
392
386
394
385
370
407
434
427
431
443
429
415
424
451
450
428
427
433
443
462
471
469
464
466
473
490
496
472
439
444
488
469
449
471
483
485
454
433
454
469
495
514
493
501
507
516
530
506
471
455
459
466
499
497
467
437
458
505
511
514
508
499
502
499
489
494
504
488
495
546
559
515
487
477
505
504
470
440
448
508
513
493
488
476
499
535
512
476
483
498
490
479
499
525
528
529
509
488
487
510
535
533
483
413
416
482
552
591
599
547
502
488
468
467
468
501
554
565
558
529
512
469
449
465
468
497
512
505
503
521
520
512
514
532
553
555
540
515
507
516
515
510
520
506
494
497
538
565
559
507
492
500
516
514
507
494
455
478
502
527
547
527
526
539
525
529
531
522
525
543
547
515
507
519
529
543
535
514
523
536
546
537
519
503
484
467
454
463
490
507
510
524
535
534
552
550
536
522
494
494
540
561
563
566
551
530
533
518
505
483
481
522
529
511
523
541
551
574
556
522
486
479
495
487
487
503
526
556
543
535
534
535
539
514
494
494
520
549
555
562
554
544
504
486
514
538
552
571
574
555
510
513
509
519
518
498
529
528
515
510
516
532
524
528
541
556
543
504
501
491
503
508
508
509
505
495
510
517
529
509
464
465
506
526
540
531
562
629
675
747
818
858
863
877
871
842
793
700
564
438
348
322
349
365
368
369
351
381
434
461
484
475
445
462
490
489
459
458
475
482
501
513
472
448
464
497
521
497
466
466
473
445
438
441
445
471
484
471
474
501
499
490
511
536
506
470
492
513
488
528
560
529
514
520
520
516
521
514
489
483
526
544
531
525
518
515
491
499
530
544
562
555
546
551
541
572
577
554
578
612
588
550
517
508
533
569
581
587
597
599
613
619
617
613
610
606
576
526
506
562
585
590
594
624
636
605
602
600
568
559
560
529
499
500
501
480
460
493
494
478
481
481
485
472
444
421
453
483
456
425
412
426
425
438
452
431
400
400
417
421
434
441
430
426
445
457
458
440
434
424
398
402
428
433
415
407
394
416
435
472
483
461
483
510
501
494
483
471
470
482
459
465
497
492
459
459
482
480
477
479
486
493
502
510
519
528
506
482
479
506
539
535
472
448
464
476
486
494
490
506
547
523
492
467
467
461
461
491
515
508
487
487
463
480
507
525
551
551
499
475
475
497
524
517
510
514
490
478
492
491
479
493
500
508
497
472
476
500
529
530
524
550
551
535
525
525
521
495
487
506
510
482
500
526
515
489
502
524
535
532
541
521
489
483
470
465
512
533
525
519
533
554
546
552
546
533
512
500
504
492
476
455
479
526
530
541
541
533
536
543
533
514
488
470
481
520
550
571
562
540
550
558
518
472
447
434
480
512
541
559
567
563
557
546
516
503
495
495
493
483
515
520
503
493
537
565
543
536
534
502
489
509
522
521
495
507
516
523
532
530
532
519
490
485
489
516
537
532
524
536
553
502
464
474
493
507
520
531
560
585
579
587
561
533
507
482
468
455
458
481
469
480
503
510
499
530
550
517
498
504
510
520
533
525
514
542
540
537
526
508
515
547
580
576
564
564
564
538
506
514
514
513
505
509
511
517
509
519
493
488
512
514
520
512
491
473
464
438
452
503
545
554
559
574
574
554
538
559
620
704
785
846
887
896
884
806
736
682
585
487
414
368
344
364
368
384
418
468
472
436
441
448
467
485
484
452
437
441
468
454
430
415
435
471
458
462
448
467
519
547
563
532
506
491
471
479
487
475
452
465
470
475
495
522
518
505
531
517
492
510
506
516
533
535
514
502
509
510
518
516
547
555
522
525
574
581
575
555
531
518
523
520
521
526
539
546
567
597
605
602
577
573
584
600
593
587
582
585
592
610
616
601
595
598
618
606
578
579
583
566
544
569
579
556
558
586
576
546
534
564
572
551
549
526
495
479
469
478
507
510
491
478
476
454
471
486
482
489
446
423
411
456
479
467
464
455
424
386
390
396
393
386
393
417
412
407
440
473
483
483
477
448
425
418
418
443
448
458
476
484
469
451
467
475
470
460
461
452
463
469
477
509
483
461
461
490
531
484
455
472
482
507
507
506
496
486
479
470
466
483
493
507
520
520
516
509
508
510
506
482
459
441
464
478
481
522
550
525
516
504
483
477
503
516
492
487
485
460
475
502
525
516
481
494
534
539
524
488
482
497
517
531
518
489
468
458
472
490
505
552
533
503
495
513
515
496
480
493
496
487
495
503
516
525
533
527
534
517
476
448
455
484
514
507
490
506
517
517
522
551
569
557
496
459
457
467
499
537
546
532
491
471
485
514
526
537
507
479
485
485
487
503
546
535
501
510
499
496
540
547
522
514
518
532
504
489
505
517
529
522
508
533
522
526
509
506
498
503
494
500
503
521
535
525
487
481
495
522
534
502
503
515
514
500
502
515
561
547
534
544
546
523
475
472
516
510
487
486
515
514
512
541
560
557
531
500
477
518
537
542
515
484
498
534
552
541
502
466
477
502
537
541
545
553
552
538
522
503
504
510
510
525
544
521
540
578
587
557
515
513
549
548
554
561
568
566
569
559
517
497
489
488
489
535
531
492
465
453
467
489
504
528
558
577
549
509
503
494
504
530
562
652
779
884
933
925
892
850
784
695
582
473
406
357
344
347
352
365
388
406
406
392
405
421
446
461
468
466
482
464
450
455
453
459
476
510
536
538
497
452
448
431
462
484
474
472
463
463
483
506
523
522
508
502
485
493
496
484
485
465
453
467
484
487
498
527
543
557
556
551
536
541
546
546
507
482
494
537
548
541
532
543
551
554
542
516
506
514
537
570
619
582
558
584
597
615
647
640
602
572
563
576
590
585
565
569
594
609
614
583
569
603
618
627
604
570
561
561
529
490
481
491
519
527
557
551
534
530
535
528
504
498
493
483
486
461
454
449
433
406
401
424
481
503
467
450
452
418
390
374
387
397
366
373
412
438
454
465
464
459
468
448
419
422
412
395
377
402
422
451
469
490
491
475
451
438
416
441
461
442
428
452
472
481
507
515
504
503
530
533
508
496
508
500
502
491
472
444
478
481
472
490
474
453
461
465
482
517
526
519
519
521
491
454
482
509
544
565
536
509
490
466
453
448
495
542
522
487
475
478
485
518
525
500
485
497
510
490
512
495
500
522
532
516
537
578
567
536
510
495
482
458
464
480
487
496
454
463
496
531
566
582
589
572
535
491
481
487
499
489
488
500
504
514
550
556
532
496
502
504
474
468
504
520
534
541
529
519
524
520
532
543
528
514
521
523
514
493
493
502
524
561
567
562
552
540
529
513
506
481
480
523
537
525
516
537
544
550
528
529
545
516
499
502
493
482
466
483
503
504
526
541
547
546
540
535
524
512
512
516
526
548
554
523
511
524
533
508
483
486
497
516
527
543
535
521
526
532
537
558
542
513
502
502
522
534
526
509
510
521
540
572
578
593
592
571
537
515
490
501
551
554
545
521
508
546
567
563
537
520
516
539
533
505
487
487
500
495
492
518
548
556
541
499
495
501
508
531
538
525
514
518
535
551
581
629
665
753
838
885
906
889
857
803
698
580
484
411
352
321
314
310
321
358
392
419
438
448
450
447
438
440
458
476
482
488
502
486
480
500
483
504
495
462
431
438
488
490
479
472
445
421
414
403
432
500
566
574
520
486
491
529
546
549
527
509
498
493
510
507
537
570
555
529
521
524
524
519
508
535
551
531
536
541
534
540
531
536
541
557
604
616
605
588
561
567
576
551
530
534
556
559
542
568
603
614
640
671
661
643
594
529
492
532
588
630
645
632
598
587
578
587
589
579
574
562
574
551
517
492
475
478
493
511
508
526
494
477
473
461
473
467
442
433
443
462
467
448
439
418
412
411
427
443
454
455
426
398
402
419
451
442
430
446
461
470
470
444
408
399
421
455
458
457
478
479
484
475
454
458
450
443
454
479
497
499
498
502
494
481
459
473
496
504
514
504
507
522
524
478
449
463
493
512
517
507
502
484
470
479
507
522
501
464
465
474
483
479
485
495
484
474
489
516
517
523
527
516
515
505
478
484
490
493
497
493
492
497
496
492
490
501
508
499
486
478
479
492
492
485
493
505
518
514
527
535
532
514
517
537
519
477
468
501
509
509
528
516
493
488
495
481
498
513
495
490
515
529
509
513
521
512
520
516
512
490
479
493
485
464
483
514
547
564
525
515
514
510
517
529
508
498
488
483
496
490
505
521
516
520
531
516
485
485
490
493
505
490
490
526
540
519
498
500
516
537
531
511
508
514
507
499
484
479
461
509
538
524
514
492
473
476
482
481
499
532
546
538
530
511
507
532
535
512
496
498
508
527
545
524
516
525
525
495
475
472
497
484
489
513
548
559
535
509
507
542
559
556
542
522
561
569
553
535
530
532
543
543
526
528
516
521
530
518
476
475
478
479
496
506
500
478
508
524
529
548
574
550
549
545
534
527
556
593
669
746
809
857
889
868
820
738
620
524
497
480
446
403
325
303
335
341
350
392
402
419
427
443
464
463
463
474
464
456
443
458
487
492
467
443
461
499
512
505
501
494
490
496
504
501
501
506
511
502
491
461
448
460
489
497
519
512
505
501
494
467
452
480
516
552
567
550
522
509
538
565
565
554
524
490
501
522
526
536
544
536
541
551
559
546
530
519
516
525
524
573
614
626
613
584
572
583
583
559
568
572
600
594
580
554
552
560
584
603
600
578
571
573
573
550
537
554
567
568
564
553
555
558
556
522
498
485
460
457
484
488
457
451
461
454
449
454
434
415
400
393
375
382
432
457
447
451
452
441
421
420
438
437
467
493
454
415
408
422
456
467
443
429
426
423
430
426
434
458
488
489
488
488
485
449
436
453
503
533
535
518
486
480
474
474
494
492
472
456
462
465
476
509
514
500
482
469
456
486
493
479
471
464
474
492
496
513
527
527
513
505
527
535
513
491
501
480
473
474
468
480
473
478
494
517
526
504
499
476
487
496
459
466
495
508
505
522
543
571
585
556
504
501
474
440
470
504
499
491
482
506
544
523
506
490
484
502
511
537
528
482
454
477
528
532
540
575
589
548
506
483
456
466
489
504
506
513
484
462
494
524
534
516
515
526
517
513
522
520
515
500
528
539
522
511
506
511
530
536
543
507
479
493
491
494
491
512
521
493
466
498
507
539
543
528
523
535
517
509
528
518
505
548
559
537
509
508
504
509
518
536
535
527
536
527
518
532
521
478
467
498
528
518
482
504
519
520
549
541
505
488
501
556
572
556
545
515
498
511
494
512
537
553
550
529
485
452
453
491
530
562
565
549
534
512
507
529
550
544
529
520
501
507
512
525
519
531
537
546
560
536
513
481
461
505
525
509
480
468
456
462
513
547
537
520
527
545
579
666
778
864
901
912
882
810
738
677
604
510
442
397
365
319
319
370
395
403
414
407
408
436
457
473
470
478
495
476
473
481
499
508
490
461
454
466
454
442
442
440
469
506
513
521
539
542
506
493
513
538
538
516
482
475
495
506
498
507
516
496
472
457
490
503
506
526
560
580
561
553
555
526
499
511
523
505
513
547
558
571
572
561
513
502
521
541
531
535
549
572
574
554
558
568
578
593
596
591
565
559
586
600
615
622
591
574
574
588
594
595
590
591
568
570
565
564
564
551
505
504
549
575
562
532
501
487
508
487
459
462
465
456
431
434
431
422
433
462
516
528
463
426
419
440
455
450
426
425
426
414
421
414
394
370
385
428
467
460
415
400
412
415
439
461
462
465
463
473
461
451
447
458
472
458
464
514
526
515
515
507
477
470
505
510
507
489
451
449
441
440
463
502
507
494
491
510
511
492
497
484
478
491
490
500
516
520
510
531
548
522
494
512
550
524
498
479
456
462
469
474
503
542
538
503
478
472
495
501
492
486
497
547
575
560
523
495
497
494
489
497
499
498
511
518
508
483
494
501
524
535
526
522
499
491
494
512
517
494
492
512
538
543
541
522
452
457
494
518
539
560
529
483
464
487
512
504
508
500
491
511
532
542
554
552
541
524
490
499
521
512
484
482
492
507
526
530
521
506
508
527
515
499
501
510
499
492
488
492
540
573
584
576
544
497
477
504
514
475
459
478
501
514
487
488
510
523
538
554
558
549
548
527
502
487
471
495
516
520
498
484
524
536
508
505
533
552
568
552
503
476
485
488
483
485
500
494
474
480
519
550
547
548
538
518
529
546
547
526
512
498
491
509
512
523
557
567
579
565
534
520
499
504
503
510
516
518
518
516
530
560
570
576
590
578
559
565
573
561
568
567
522
483
483
501
531
534
509
505
539
503
457
429
460
506
513
529
549
561
604
664
733
808
845
876
883
858
796
735
667
576
491
436
395
366
335
331
361
391
414
421
427
432
420
452
484
498
466
451
467
462
444
447
460
466
467
490
497
490
508
513
492
489
492
495
495
514
497
477
487
534
539
518
497
530
573
555
476
454
482
505
490
492
505
504
534
513
508
544
556
547
542
537
513
518
530
537
547
537
540
530
517
528
559
574
567
546
569
582
583
602
597
570
542
536
578
606
591
594
620
591
574
590
607
616
598
564
569
588
595
584
565
556
554
577
580
591
587
577
548
515
521
523
513
520
545
546
533
525
515
496
453
436
445
465
471
459
442
419
424
439
452
452
435
421
431
455
454
429
447
468
483
477
445
419
425
436
421
427
424
435
455
449
425
395
395
434
448
458
454
448
473
477
489
437
403
427
453
479
492
483
500
527
518
492
496
507
516
514
504
484
471
488
489
483
485
482
476
504
496
488
497
477
458
476
477
504
510
481
471
483
493
500
499
471
470
478
484
485
482
475
510
539
508
469
480
475
489
488
486
490
502
523
513
496
506
527
521
517
509
496
493
492
502
522
523
497
481
496
502
488
479
480
496
498
515
512
495
489
466
483
511
541
539
516
498
517
527
530
531
531
530
502
474
477
495
495
490
483
506
515
521
539
527
513
502
492
496
489
502
511
498
487
523
531
506
506
528
542
523
505
506
523
518
503
488
492
500
503
495
475
471
504
536
561
536
503
516
541
540
526
493
501
563
599
566
510
485
472
475
493
488
503
488
480
503
488
484
522
524
492
489
524
556
547
535
514
500
505
497
509
530
504
465
467
486
511
529
546
560
552
535
518
517
535
525
497
499
483
482
507
492
472
503
523
537
541
530
510
493
513
519
519
550
549
516
534
550
555
557
539
520
518
523
546
540
545
548
520
506
501
501
531
561
543
506
471
463
470
459
495
526
541
558
548
522
496
501
495
475
461
467
462
514
577
635
674
705
782
862
897
865
829
827
766
635
555
479
418
388
384
396
396
386
348
363
387
393
410
441
467
480
466
444
444
446
431
441
443
447
462
482
488
481
453
455
475
463
485
544
550
500
472
473
472
489
493
506
538
528
512
492
469
428
452
491
480
498
520
529
519
497
485
474
499
511
509
526
564
566
533
524
543
550
551
553
534
516
519
507
502
540
548
552
566
588
599
580
572
558
555
570
594
602
598
610
603
583
572
596
616
581
572
558
553
569
569
571
579
609
613
611
630
611
564
543
553
556
546
530
535
563
564
518
507
482
460
461
469
452
456
458
463
448
436
420
406
439
440
437
440
444
463
449
418
407
415
426
436
459
471
461
447
421
404
407
393
402
437
444
435
436
429
409
433
485
507
496
462
415
386
418
454
471
475
465
456
494
536
555
531
512
498
519
519
503
475
435
427
446
461
473
470
460
479
499
530
534
491
466
474
478
490
480
466
484
487
514
525
534
546
554
547
523
496
483
478
481
488
475
430
427
453
482
514
501
524
569
586
556
505
469
473
482
475
479
496
502
528
561
564
514
486
502
499
493
513
529
527
524
517
512
539
519
482
484
464
468
513
549
563
535
496
465
466
507
525
508
475
508
546
542
522
503
506
532
549
536
479
442
457
493
531
558
564
550
528
510
507
508
519
530
518
489
486
479
486
509
538
562
544
523
483
482
519
509
484
486
523
532
543
559
533
538
574
609
569
530
498
489
480
476
485
485
521
548
519
508
505
482
502
533
527
505
505
530
523
522
500
476
483
518
561
585
571
535
487
449
477
531
563
541
512
529
519
505
502
503
508
513
523
516
510
534
547
509
497
481
469
496
529
524
514
504
498
495
498
516
512
497
524
533
533
547
557
571
566
537
531
547
542
528
477
480
517
528
521
514
510
500
506
531
530
514
495
466
452
436
474
523
522
502
484
489
527
550
540
492
477
510
552
609
677
734
800
861
903
884
848
795
716
578
482
446
434
419
391
389
391
402
403
398
416
421
430
441
464
462
447
445
441
443
447
477
458
427
452
479
462
429
423
435
469
497
522
517
493
476
474
477
483
491
500
493
484
507
540
527
491
458
461
483
512
521
506
490
494
485
480
474
462
472
519
544
539
533
535
540
558
550
542
541
555
551
509
497
527
541
557
552
561
546
529
534
550
561
589
589
588
593
569
546
569
586
579
591
617
607
585
575
577
600
609
592
577
549
528
533
557
550
561
580
579
568
553
546
548
539
530
528
511
473
457
489
516
517
488
473
459
433
449
465
442
452
463
451
447
444
409
387
404
429
438
441
452
451
435
442
443
446
484
489
472
451
460
437
428
432
422
443
470
468
458
450
422
441
486
503
501
494
487
471
499
495
457
432
422
452
500
499
478
485
519
541
538
524
510
483
449
443
450
468
482
486
493
510
508
492
493
497
467
440
477
527
501
472
471
501
513
515
528
515
492
500
516
504
450
440
479
518
525
521
506
480
466
475
479
477
473
487
531
546
539
479
456
451
450
456
467
507
568
583
582
577
603
609
620
665
688
617
482
384
362
370
424
489
537
539
494
481
485
471
483
506
516
507
520
539
573
593
591
603
609
598
553
529
541
551
552
539
523
501
497
545
584
597
573
561
562
546
524
505
522
561
564
562
532
497
479
486
514
526
566
603
611
587
520
495
510
530
529
536
530
483
460
469
497
516
570
608
598
522
470
475
474
481
538
553
510
476
453
454
474
466
474
470
466
467
456
478
497
484
466
470
484
468
465
469
445
415
409
428
440
455
503
530
517
464
434
432
435
424
412
430
443
457
451
432
426
435
414
411
426
437
458
477
474
447
453
501
503
448
399
376
393
413
428
443
437
451
436
406
395
399
454
476
451
447
449
453
456
457
480
524
558
543
497
454
438
428
416
437
460
490
514
507
500
469
430
431
446
464
506
529
540
563
588
638
706
748
801
856
884
880
829
793
785
714
588
479
404
366
372
425
484
497
463
438
434
445
468
495
515
499
464
460
502
521
508
502
506
480
450
433
441
459
486
514
536
514
510
526
529
544
575
591
564
551
534
535
533
522
534
568
609
622
617
584
538
526
537
548
556
577
578
570
582
620
663
656
630
621
600
551
535
572
605
654
669
650
642
651
657
648
637
648
637
620
613
629
665
704
742
746
713
667
636
630
639
661
646
654
683
701
669
667
688
699
706
708
712
714
703
716
749
756
731
676
607
571
547
543
546
560
565
584
607
594
563
549
557
571
561
500
456
455
482
493
488
482
485
504
529
535
526
524
510
511
502
492
488
493
494
489
492
474
485
495
523
529
506
496
482
496
533
534
532
542
533
532
548
581
607
634
632
625
652
679
669
613
580
596
635
646
634
614
593
581
587
609
626
630
611
584
576
605
628
622
612
622
612
598
605
630
636
627
632
631
629
638
617
581
563
567
601
625
615
594
578
564
540
526
530
551
581
568
546
548
577
607
620
620
610
595
601
633
656
631
573
529
510
523
549
577
589
569
568
564
542
520
529
535
527
526
531
528
531
538
549
543
512
512
539
551
562
606
615
563
502
499
524
537
539
530
516
547
564
554
520
497
508
509
521
523
533
526
520
565
623
588
514
485
474
458
469
507
517
521
518
525
517
506
518
506
474
457
456
457
471
467
470
481
511
516
518
504
491
478
464
482
485
492
491
484
473
466
480
470
461
488
521
515
464
421
434
469
470
454
458
480
513
513
518
523
503
446
411
443
471
480
487
496
483
463
439
435
460
479
485
473
477
469
447
416
434
463
481
487
479
460
438
434
420
408
425
445
441
438
459
462
479
494
478
452
445
464
465
456
481
514
530
518
485
460
453
456
456
443
438
471
490
505
494
454
414
403
399
407
410
400
401
414
413
424
419
421
430
454
478
502
506
542
579
645
736
849
913
891
819
755
698
612
503
391
298
258
246
248
256
266
309
348
355
349
357
363
387
394
383
373
371
399
434
419
393
366
345
332
341
364
384
421
452
476
477
454
423
389
369
385
398
394
397
420
435
450
457
455
455
463
478
464
434
432
435
435
450
454
464
470
453
439
445
452
439
437
452
479
482
508
508
494
469
459
464
483
517
519
517
518
535
544
555
545
510
468
474
499
507
519
508
506
540
562
545
520
513
517
517
532
571
585
583
598
600
569
533
516
510
506
513
512
494
488
509
536
533
507
459
455
460
457
471
469
454
444
416
395
375
383
412
425
432
422
395
389
379
381
391
393
381
368
357
372
388
409
430
450
457
437
423
415
406
411
418
412
412
412
405
401
410
396
386
385
385
403
435
464
466
469
468
448
434
442
460
465
463
486
527
545
494
457
442
438
447
470
474
482
490
490
501
510
503
502
482
469
460
466
467
471
476
478
467
458
477
483
471
482
494
513
508
482
476
476
466
464
471
492
496
509
512
485
468
453
473
499
509
503
498
493
473
451
444
447
443
451
461
465
458
460
477
499
546
568
550
536
503
467
434
413
433
479
529
535
548
573
576
537
479
439
441
454
523
565
528
467
437
449
463
475
505
524
524
541
521
511
510
503
498
492
498
510
510
508
508
519
527
498
505
528
506
483
470
460
464
486
502
499
498
499
516
529
531
540
541
514
492
488
498
517
525
527
530
521
516
535
541
514
493
495
504
518
531
539
525
519
507
504
487
480
464
468
471
506
552
569
531
513
494
482
493
516
512
491
493
496
513
551
581
579
562
552
536
512
497
483
484
500
509
506
505
513
529
523
494
498
525
538
534
532
538
539
528
541
578
590
558
545
530
506
489
494
506
494
498
509
484
462
463
469
470
479
505
492
465
480
502
531
566
616
687
773
862
892
885
875
840
757
670
591
522
433
365
328
341
360
369
356
359
361
365
373
390
422
448
472
500
494
431
400
420
461
483
491
477
480
480
487
508
500
486
489
521
515
479
449
436
438
453
475
495
493
489
501
506
495
480
468
468
483
517
534
521
506
516
530
537
529
519
508
509
495
500
504
506
511
517
521
541
570
582
575
557
550
554
560
544
549
557
561
574
556
553
548
533
549
555
549
561
588
599
580
557
554
574
591
586
578
567
586
605
616
607
589
582
593
597
573
524
502
535
561
550
531
520
512
499
489
479
463
460
448
426
434
464
469
460
434
431
433
414
418
403
391
418
438
438
415
418
435
439
423
413
428
436
433
428
430
430
432
438
430
432
443
439
442
465
482
493
502
493
461
440
445
459
475
474
464
445
435
453
471
473
471
489
511
509
477
482
492
494
500
510
509
488
473
473
471
482
490
482
495
521
539
525
536
533
504
491
483
480
474
469
468
484
490
491
496
493
495
487
483
480
488
486
510
511
495
491
501
512
506
480
476
488
488
477
463
438
420
439
479
507
504
509
531
552
561
559
531
516
507
521
546
559
528
485
471
476
482
496
516
517
490
466
462
471
479
483
472
487
517
518
493
478
487
496
496
488
494
507
504
506
519
543
564
544
503
486
491
498
504
503
490
498
505
513
550
543
511
497
496
490
503
519
505
478
471
485
500
511
520
519
516
499
517
516
495
489
520
544
542
533
522
513
510
492
485
494
508
498
507
545
547
550
552
527
502
502
504
513
524
522
532
539
505
495
515
540
546
528
510
501
497
507
519
518
530
534
507
500
527
542
533
533
556
582
602
612
592
557
516
497
485
481
494
495
502
515
506
515
540
529
532
508
479
477
491
499
508
522
527
571
642
710
776
850
897
897
881
844
768
662
552
461
416
398
381
388
368
352
388
418
415
417
429
428
423
447
480
490
489
498
470
462
465
472
480
493
506
513
504
491
480
462
457
471
498
498
484
496
522
528
517
505
493
497
517
536
527
501
488
475
477
517
546
555
555
547
525
516
517
513
513
523
555
568
552
556
568
555
541
541
573
600
616
609
579
561
544
514
508
522
527
529
533
553
588
585
579
565
558
579
566
558
582
597
609
609
596
583
570
569
572
576
584
587
602
624
608
584
567
561
549
539
519
508
510
527
545
537
526
502
497
487
455
442
444
437
447
447
430
421
433
443
453
452
452
446
458
469
459
440
432
437
417
407
427
431
410
408
434
443
447
443
438
431
424
443
463
476
486
490
475
449
459
460
477
493
480
475
474
478
487
493
483
484
490
504
516
522
516
506
497
484
475
477
499
500
499
488
477
484
489
477
463
458
473
497
517
534
535
527
508
505
502
505
505
498
500
501
487
498
495
492
513
529
501
489
506
516
522
514
526
500
466
469
476
478
477
479
475
495
532
544
547
548
544
526
513
505
484
466
455
475
504
520
531
543
558
545
521
496
477
478
484
494
499
508
496
498
501
495
492
530
577
570
517
483
475
478
489
495
478
477
493
499
507
526
521
516
529
535
542
529
514
539
550
543
531
544
546
513
491
495
498
498
504
519
519
544
545
518
492
480
487
491
505
527
526
520
535
538
517
507
518
527
540
547
548
551
558
557
565
557
550
534
497
487
467
467
481
496
521
503
470
462
474
503
525
530
541
556
547
543
555
545
510
498
501
494
494
482
481
481
503
541
574
548
505
493
496
498
498
511
535
540
542
561
560
547
510
497
505
498
498
514
509
506
514
553
554
516
496
479
471
486
502
508
499
493
499
502
515
547
568
596
632
693
737
789
852
869
865
817
746
674
585
491
441
401
366
348
345
345
344
367
388
396
418
432
435
437
461
471
475
476
471
457
460
465
462
464
474
486
481
479
493
514
522
520
509
482
478
476
475
496
501
484
465
468
499
518
519
522
499
499
503
492
486
496
512
526
523
519
526
535
540
536
557
554
545
531
518
528
527
526
530
544
552
567
577
575
560
561
577
578
551
540
542
544
550
572
583
584
591
607
620
611
595
570
555
554
568
591
588
586
576
559
525
524
549
588
606
596
600
590
571
560
546
531
524
517
507
505
500
527
530
543
538
517
483
447
443
442
435
441
431
439
464
453
428
438
446
447
456
462
438
420
417
407
401
417
453
437
423
452
468
469
487
482
464
456
460
447
436
423
426
438
448
455
447
467
488
485
481
483
496
486
495
498
502
494
498
496
500
510
502
478
472
493
522
527
543
558
526
483
452
450
468
475
475
484
502
509
509
502
490
505
525
516
507
498
496
484
489
504
512
520
537
538
536
523
514
508
503
494
479
483
491
498
497
511
519
508
516
501
491
482
490
511
525
516
501
505
526
529
508
489
498
508
517
526
538
542
500
484
504
507
516
521
527
530
523
507
501
512
515
509
509
531
523
516
521
497
496
508
519
512
482
494
506
500
501
514
528
545
558
542
528
510
534
547
525
543
546
531
513
495
498
498
508
522
515
503
513
515
515
522
517
522
533
532
528
500
482
491
497
524
540
532
525
518
515
509
519
544
551
543
524
500
511
508
483
517
513
507
510
518
530
521
515
505
509
516
521
498
488
478
489
520
561
571
555
545
533
522
522
521
525
510
521
527
517
515
536
537
530
528
521
536
563
582
568
536
492
470
493
515
530
557
587
596
576
541
514
524
514
514
550
571
563
537
532
539
544
521
488
475
497
517
515
505
502
499
506
517
526
536
535
537
561
608
655
722
795
859
903
931
943
881
760
648
569
512
459
391
367
354
340
343
369
409
447
464
454
458
468
480
483
461
462
466
475
481
482
479
490
490
455
445
460
484
498
498
484
462
458
475
480
477
473
460
459
489
515
533
524
512
499
508
516
492
486
503
498
498
513
525
526
504
526
569
540
514
502
494
504
503
499
512
516
542
557
543
543
557
547
542
551
558
554
545
539
549
573
573
573
577
579
580
582
582
598
593
575
571
578
591
607
601
586
598
608
605
589
583
591
591
582
567
560
573
582
556
533
532
534
519
511
535
549
541
533
505
476
454
443
454
460
478
492
481
454
437
433
414
416
445
460
454
434
428
439
444
442
437
444
431
416
427
445
463
477
471
461
461
490
486
462
430
419
425
448
460
473
470
476
510
533
517
486
458
448
461
472
495
499
496
506
521
524
517
498
463
470
492
490
486
471
469
482
490
493
501
502
506
507
511
517
500
488
488
478
491
512
528
506
482
458
465
484
494
496
499
512
522
521
505
505
510
498
481
485
501
488
499
513
529
517
504
499
510
522
509
495
512
537
515
496
493
495
488
468
458
478
513
527
507
490
489
482
486
495
488
481
473
489
517
548
544
528
530
503
486
487
495
500
504
522
541
522
480
463
481
483
489
505
513
501
502
523
520
510
515
519
514
531
528
528
538
529
525
519
491
486
524
541
520
510
508
501
503
507
502
504
515
533
532
520
508
519
513
513
508
485
476
505
537
538
539
544
541
531
501
466
488
510
524
532
520
520
526
531
530
538
551
559
549
515
504
500
491
483
497
509
516
537
545
534
513
499
496
498
512
532
545
543
529
509
503
499
495
504
516
516
509
545
607
607
564
527
512
495
497
513
518
518
526
526
518
529
537
535
549
557
540
536
544
544
556
555
534
520
510
527
536
543
526
517
501
497
498
501
516
516
495
476
486
518
532
527
521
515
550
606
678
753
805
817
830
847
838
791
715
637
558
503
469
426
388
380
382
384
406
418
413
395
394
408
420
434
451
465
468
458
465
472
476
474
471
468
481
504
499
477
465
466
469
489
494
478
486
472
457
450
459
479
481
476
493
514
507
503
493
490
485
491
517
527
539
531
515
513
482
483
487
480
491
505
510
515
524
528
536
527
535
531
534
540
541
555
582
586
557
532
543
548
583
587
566
567
583
580
558
560
569
582
585
576
560
569
590
606
593
594
601
608
611
591
579
590
599
578
560
549
547
558
570
570
551
533
523
498
483
490
506
502
500
487
465
454
431
415
416
446
462
451
428
413
415
434
434
415
415
414
423
452
458
461
461
437
426
426
436
438
467
486
477
474
472
467
463
450
434
434
431
435
446
442
411
407
423
442
476
491
489
493
498
499
485
466
461
498
507
490
491
470
463
465
497
520
500
503
519
527
530
525
504
482
479
479
479
477
483
491
482
452
441
461
478
496
492
488
481
480
498
507
476
457
488
512
522
510
495
479
479
511
532
536
528
496
470
475
483
500
541
561
570
536
502
487
483
500
503
499
497
483
485
497
496
505
507
498
508
507
519
523
509
496
489
493
508
503
485
493
509
524
545
559
570
551
507
492
481
472
487
509
515
508
489
494
503
521
522
506
489
509
526
537
549
548
554
547
518
500
498
523
532
522
503
479
473
475
484
507
527
544
558
534
519
514
510
501
497
505
506
516
533
560
539
505
487
493
507
534
544
513
510
521
516
496
501
514
513
503
520
528
529
526
522
513
515
528
512
502
513
531
533
522
518
510
501
503
519
528
528
523
511
500
489
485
495
503
515
509
496
502
512
527
539
548
540
536
532
544
545
551
560
570
557
517
486
484
491
502
510
519
531
538
555
568
557
545
542
532
530
525
514
526
547
565
546
517
494
492
506
514
524
529
516
502
495
500
508
509
508
512
507
482
477
491
523
586
655
728
801
849
869
871
860
831
754
635
525
466
422
383
388
419
432
416
413
414
394
382
402
434
468
498
495
482
468
437
418
427
443
451
455
465
491
509
514
493
478
475
471
466
448
448
458
473
481
507
518
505
492
495
509
494
484
486
490
500
509
515
523
503
494
512
520
527
528
518
505
502
517
526
505
512
501
517
524
530
545
549
560
581
597
607
558
534
541
548
558
563
564
572
580
583
579
589
590
600
603
604
601
589
579
552
552
559
566
564
568
588
583
579
577
569
558
547
554
566
559
543
543
534
532
515
511
509
511
500
516
519
499
465
444
447
458
470
466
446
423
421
409
413
435
442
431
422
428
426
436
435
448
456
453
450
440
452
453
442
431
421
450
449
427
429
444
471
461
436
442
450
434
440
439
446
467
481
488
467
449
475
491
479
468
463
473
494
520
516
512
520
499
470
473
506
506
487
481
481
483
468
455
473
489
485
484
470
480
503
508
521
528
507
499
511
497
484
491
493
505
500
500
506
516
509
479
475
481
479
475
471
486
514
514
518
522
522
517
506
507
497
490
476
477
485
499
509
504
501
498
514
539
534
517
498
484
494
495
495
511
533
547
563
554
535
521
509
492
501
508
508
504
504
507
512
505
506
519
509
501
503
502
525
537
519
520
530
531
544
529
510
515
512
508
519
531
537
526
516
534
538
525
526
540
552
541
516
511
504
507
520
519
511
525
533
533
518
506
508
507
505
497
508
521
540
559
563
543
523
505
502
517
514
523
515
502
500
523
541
543
532
511
522
535
554
552
537
541
553
556
557
551
556
532
517
524
536
533
531
525
533
525
536
537
543
530
499
484
497
514
524
543
560
558
534
511
535
531
528
525
524
528
555
552
542
511
504
514
495
505
555
581
577
559
544
533
542
557
555
561
552
542
525
518
527
532
529
520
519
525
530
532
529
526
529
520
513
501
493
489
486
514
530
503
486
484
498
507
506
527
571
629
687
749
812
868
875
856
821
774
696
599
501
450
397
356
361
372
379
395
415
430
439
441
464
471
469
461
448
450
458
476
488
476
467
457
452
463
468
461
460
465
472
476
449
442
462
481
491
498
490
470
461
460
487
525
543
534
516
506
507
536
554
529
491
483
492
492
506
534
536
536
537
546
542
537
512
497
493
503
514
519
527
537
548
574
576
552
533
536
553
565
548
557
581
599
602
597
586
582
577
563
556
555
582
584
573
590
611
606
618
637
637
610
581
558
551
549
537
535
534
534
541
559
554
548
536
529
537
531
529
523
513
486
477
457
461
478
448
411
414
447
451
456
469
446
432
439
435
420
412
405
416
444
440
448
452
438
432
417
416
422
419
422
433
442
444
439
443
435
424
442
484
487
482
471
459
478
488
484
477
460
447
451
464
481
483
481
491
508
499
484
462
467
502
509
497
479
476
467
456
465
478
492
499
502
521
529
531
527
488
468
475
471
470
484
494
493
489
502
506
516
501
473
461
468
467
472
510
523
507
502
493
487
470
467
477
483
490
497
494
499
498
487
484
475
483
491
500
495
497
516
534
528
533
526
516
523
510
479
474
518
546
560
540
499
473
466
465
486
516
521
501
485
512
540
529
505
493
494
503
504
500
502
514
497
495
503
515
528
528
528
517
513
528
506
496
491
496
502
524
562
555
521
511
520
513
499
487
502
515
511
512
502
508
524
517
509
502
504
499
489
488
506
508
514
508
497
501
513
523
517
523
542
548
537
517
503
480
470
480
501
515
498
498
507
507
525
524
510
509
520
521
504
498
494
486
509
518
513
514
509
484
491
508
506
515
513
528
525
500
497
510
530
525
536
544
539
517
493
487
513
535
538
559
565
541
504
485
494
509
528
545
523
518
508
504
527
526
546
561
568
563
530
514
506
510
523
536
514
501
499
517
519
520
514
507
491
482
490
475
481
498
504
521
503
492
497
538
585
636
716
789
846
892
917
903
851
769
631
531
462
396
352
336
343
363
360
384
424
439
448
456
448
443
437
430
439
444
441
456
476
478
480
494
503
476
460
442
431
447
465
493
508
528
538
522
499
477
487
485
498
506
497
486
499
498
493
520
524
521
514
494
486
497
523
522
498
497
510
504
517
540
546
541
549
549
554
556
563
569
553
542
544
551
553
557
543
538
551
567
573
572
574
589
604
610
595
588
564
561
567
571
565
553
547
554
576
609
616
625
611
601
604
605
600
598
592
594
573
578
569
556
558
560
546
532
520
477
455
452
462
470
455
447
437
426
428
442
447
436
447
458
430
417
420
433
445
436
425
438
457
464
457
441
433
426
425
414
431
451
443
435
447
464
468
443
429
421
432
437
449
463
470
468
472
471
468
461
470
489
484
482
470
469
480
486
492
482
481
469
460
477
486
498
500
487
479
480
484
489
494
486
480
480
484
491
502
506
489
474
477
487
473
481
504
510
482
470
489
495
493
484
482
504
514
494
480
476
489
497
495
494
495
486
490
496
504
503
484
475
485
503
530
548
525
495
487
493
485
481
503
530
545
519
483
481
498
499
498
487
496
515
528
530
509
486
472
503
524
525
519
537
549
534
517
514
510
513
529
530
496
477
480
496
484
484
493
507
513
509
529
530
501
478
489
498
511
526
532
527
517
546
543
507
497
501
495
490
495
490
498
517
531
537
568
592
561
503
473
475
504
527
518
516
520
529
506
482
496
521
514
528
553
548
513
485
487
510
512
505
507
514
524
553
550
543
527
516
541
548
544
533
511
490
487
494
506
504
516
541
571
535
506
504
508
521
537
532
531
530
533
529
558
568
561
564
557
560
542
538
529
523
513
515
531
545
526
514
522
538
517
505
519
520
498
483
479
465
455
451
471
502
531
577
626
684
718
753
820
869
886
880
849
778
671
577
498
427
373
348
358
353
354
354
362
363
414
447
452
456
466
500
524
512
523
511
474
448
445
465
469
466
473
497
498
491
496
508
502
493
476
466
467
489
526
558
567
564
536
517
530
561
567
539
493
469
482
501
504
509
526
535
530
549
539
522
530
535
546
564
558
543
544
555
559
550
548
553
540
532
563
598
598
574
550
544
542
557
571
562
567
568
579
601
612
602
590
587
573
566
567
578
600
600
597
597
604
614
605
589
587
583
601
605
603
581
564
543
518
501
509
518
521
515
496
489
471
478
463
445
454
476
482
445
448
473
482
470
457
428
404
395
413
427
458
448
442
432
428
429
424
396
412
440
441
424
416
442
474
464
451
446
448
460
473
466
459
452
458
483
500
501
484
470
476
496
510
517
514
521
535
519
469
446
454
477
487
479
484
476
486
507
504
499
500
506
512
509
519
516
492
487
510
513
493
481
480
502
509
506
509
522
511
499
499
510
517
517
518
513
500
505
514
497
492
514
508
510
513
517
496
494
498
503
515
520
521
506
504
509
507
515
524
539
553
523
500
513
544
557
537
516
498
487
489
519
541
531
502
497
502
498
479
461
467
489
515
518
517
504
505
507
506
509
498
495
498
502
524
539
540
527
528
548
540
534
548
523
506
488
481
489
514
536
546
544
537
508
501
508
500
493
484
482
494
507
529
526
522
497
485
496
500
507
508
497
489
497
502
488
493
515
523
533
539
529
521
512
503
507
517
526
532
530
532
528
503
493
537
595
583
556
548
530
505
487
503
520
522
517
493
487
493
513
528
546
540
558
553
529
504
504
517
513
502
500
496
500
508
515
523
514
499
503
496
493
497
530
564
603
678
747
819
866
913
906
830
749
678
609
553
474
402
366
349
332
338
369
395
423
439
424
423
440
446
453
461
458
458
439
426
466
483
474
462
475
485
481
486
506
515
517
524
541
545
517
484
464
480
499
498
510
497
496
496
498
504
505
507
497
491
488
468
480
500
501
486
510
557
540
541
543
535
525
508
498
505
521
538
553
567
572
578
589
573
574
568
566
539
507
510
524
547
553
559
566
569
583
590
579
556
546
539
553
578
577
587
610
624
597
540
515
530
543
551
564
570
563
557
555
576
577
578
569
546
527
512
496
475
435
406
415
440
452
446
432
423
422
429
422
419
434
436
438
441
438
419
427
452
452
438
454
455
452
456
466
468
434
402
394
400
410
413
412
425
440
465
470
470
465
449
440
431
439
441
448
469
476
478
487
481
483
523
559
567
547
501
447
411
414
443
467
488
513
529
519
482
462
469
462
464
478
491
498
479
464
472
484
480
484
476
481
511
530
538
535
518
481
488
494
477
458
459
476
483
475
465
467
488
501
520
524
521
504
500
489
470
475
475
475
477
477
489
528
532
501
474
481
497
502
505
522
527
519
494
488
491
487
483
483
483
496
497
491
491
507
522
515
504
513
540
542
528
507
513
519
504
504
515
529
527
519
495
473
473
477
478
503
500
483
502
513
502
488
500
520
518
515
523
500
484
509
540
543
519
503
500
518
525
513
506
495
481
491
498
497
503
514
541
518
498
495
497
485
488
507
528
529
539
552
566
573
556
519
486
482
488
488
508
522
527
553
566
563
552
532
518
524
517
501
492
505
522
548
528
498
480
479
484
489
485
479
475
496
507
502
515
543
581
600
678
766
800
819
841
859
843
780
699
610
515
447
411
388
371
364
344
348
378
417
453
492
500
478
460
451
446
438
415
410
421
465
501
505
500
519
500
487
468
482
475
459
471
476
482
504
508
496
470
482
512
516
503
522
518
505
504
501
502
500
499
494
496
517
529
507
490
502
527
536
525
527
535
539
541
532
541
557
549
547
538
535
553
561
573
580
581
584
563
533
511
525
545
578
591
586
582
558
538
549
571
584
605
595
578
575
583
609
593
604
610
586
596
601
588
592
591
575
565
546
517
498
480
497
514
495
491
487
485
499
531
538
509
465
440
432
442
425
402
424
438
438
453
451
458
457
466
468
455
439
438
418
416
418
443
464
446
441
461
462
450
456
458
430
442
438
432
441
460
462
455
479
481
468
484
502
503
508
488
462
453
462
476
485
507
500
494
481
466
480
490
518
509
481
465
450
471
480
480
489
513
500
498
500
516
535
522
494
494
486
455
471
528
529
501
479
473
492
506
502
509
524
510
503
500
499
491
507
516
508
510
525
532
533
518
494
472
460
457
477
486
507
513
511
513
526
526
519
500
491
494
495
496
504
507
506
500
489
524
541
533
502
479
483
499
514
505
498
485
500
534
560
562
568
526
491
490
498
524
552
534
504
488
478
470
479
478
488
500
528
536
520
524
522
522
521
516
508
504
508
520
509
515
510
506
516
539
550
548
545
540
528
501
492
502
524
523
516
506
510
506
494
492
506
520
515
504
502
512
538
553
567
551
513
506
507
501
480
495
519
524
526
535
545
554
579
576
548
510
494
512
524
529
550
544
520
525
543
543
546
556
536
500
474
455
463
467
470
471
475
493
484
485
492
503
528
587
635
677
703
754
837
902
900
884
865
785
688
580
512
473
443
404
364
355
371
386
391
387
400
419
407
405
433
453
471
485
471
479
499
504
514
496
486
490
497
501
494
490
484
474
474
485
511
547
559
541
499
466
470
474
449
448
481
509
514
513
525
518
512
505
511
522
500
494
495
528
546
534
522
524
529
527
526
554
570
556
532
526
530
546
543
521
497
513
535
547
565
571
549
539
561
577
579
578
578
573
583
574
576
573
570
586
610
601
592
594
597
597
599
591
597
613
605
560
517
501
489
495
509
520
522
512
523
534
541
546
536
520
507
490
476
467
450
447
465
484
461
420
394
387
363
374
409
436
444
439
444
438
429
441
451
457
455
436
423
431
446
469
479
479
466
441
441
452
451
444
413
430
462
487
491
513
528
491
468
450
447
445
448
464
471
478
492
507
502
489
490
482
467
466
492
512
536
546
533
508
473
471
491
501
491
501
520
523
516
502
486
460
463
481
512
529
531
540
520
481
449
457
506
554
550
519
473
458
472
481
477
489
509
513
522
505
486
478
469
485
536
547
523
520
513
517
517
528
535
521
503
492
495
495
490
488
485
510
540
540
541
535
522
524
522
512
502
504
508
536
561
553
541
511
486
480
490
492
486
497
491
504
523
517
506
526
532
520
490
478
508
538
536
524
510
521
518
501
520
524
517
533
538
522
518
531
522
507
501
486
469
468
482
503
512
500
512
527
518
508
505
515
543
543
524
516
535
542
531
520
522
515
501
486
483
506
524
529
536
521
504
482
476
507
513
502
509
516
539
541
531
543
562
569
541
504
480
471
477
492
490
503
529
541
533
512
514
520
548
562
539
507
497
492
483
476
468
478
497
506
525
527
530
540
539
537
539
516
490
473
485
503
518
545
545
541
554
567
576
571
547
526
510
518
536
549
538
510
514
529
526
502
482
489
482
480
489
500
496
490
482
496
526
542
535
542
530
537
585
626
667
737
802
837
845
868
860
806
728
629
530
463
418
392
363
362
356
344
349
387
423
441
452
460
466
475
467
460
474
471
460
448
458
470
488
515
521
506
474
451
445
462
468
458
466
485
528
543
516
492
495
513
523
522
520
514
508
512
510
522
513
496
510
531
544
523
478
483
511
531
546
548
552
533
522
516
505
517
544
552
526
535
553
551
546
543
555
550
547
546
558
547
554
572
569
562
586
618
619
617
600
576
573
578
598
615
620
605
586
584
614
634
600
554
551
575
587
569
559
552
548
539
552
556
549
524
521
519
489
474
501
506
486
469
478
477
461
425
418
429
444
450
472
495
451
409
405
418
436
430
407
404
415
427
445
444
433
417
412
420
417
419
434
438
447
439
437
442
452
463
473
483
463
444
457
485
512
494
473
453
455
454
458
464
468
481
477
471
474
483
496
504
493
480
470
463
471
470
481
494
451
434
456
464
485
499
492
509
506
490
479
482
497
503
499
500
492
484
482
497
517
540
557
532
518
497
457
440
447
450
471
478
493
505
509
497
472
466
494
483
469
484
500
493
487
499
505
489
494
498
476
463
462
477
481
485
508
522
520
534
543
533
521
525
502
497
507
511
503
502
509
528
518
495
497
503
503
501
487
459
460
471
483
505
512
522
512
493
479
484
490
487
494
527
552
540
535
545
548
531
513
497
479
471
490
511
531
528
522
507
513
523
499
473
471
482
494
504
518
511
506
513
525
541
537
530
535
522
519
513
473
487
512
530
532
518
514
503
481
495
518
512
513
501
505
515
518
522
529
541
537
519
510
488
477
489
484
498
509
512
508
529
539
509
504
514
517
519
511
521
532
524
532
522
508
508
513
513
517
530
531
504
495
492
491
514
521
526
523
500
471
481
502
517
518
521
521
528
513
515
540
542
532
533
521
503
510
525
527
539
552
550
548
567
578
542
508
496
485
492
476
485
501
521
565
581
575
553
527
513
503
502
527
530
503
469
455
465
466
471
478
488
495
494
506
531
549
581
663
739
810
853
848
831
798
731
658
604
548
488
460
442
422
389
370
363
370
386
399
437
457
447
445
451
483
472
442
448
471
484
478
461
458
466
471
480
498
493
481
465
470
490
498
503
511
488
480
477
475
465
471
499
513
525
523
506
493
500
482
477
487
507
514
499
488
495
510
533
548
546
524
525
528
540
579
591
569
564
542
535
539
532
525
529
549
580
571
561
564
559
543
554
573
580
586
586
592
576
590
606
594
568
561
572
587
585
564
567
592
608
597
595
615
589
562
567
568
561
555
543
548
544
528
529
530
527
499
489
489
475
467
480
473
462
443
449
445
419
411
435
447
459
480
491
483
483
451
439
427
405
407
429
430
410
400
406
419
444
465
464
452
450
443
424
415
412
420
421
416
439
471
476
468
468
477
473
483
497
483
477
462
461
496
481
471
482
496
508
511
496
478
479
473
485
494
499
493
493
498
482
498
518
522
514
499
503
516
497
478
486
498
506
489
485
480
487
478
496
530
521
518
515
491
480
484
505
528
510
479
492
540
552
553
545
535
522
487
477
471
465
471
498
495
485
485
497
496
479
479
506
533
560
545
514
490
499
522
532
516
510
509
506
498
503
500
491
499
505
511
519
532
520
507
501
502
512
534
555
528
473
466
481
487
479
486
521
553
532
517
504
482
485
520
543
516
492
516
525
523
525
542
547
527
505
522
508
500
489
468
489
501
543
567
550
521
501
517
517
509
519
519
531
532
538
533
505
488
485
481
489
524
521
513
508
517
513
500
524
544
542
527
506
518
519
502
501
510
522
519
512
514
528
538
534
537
528
524
525
507
502
523
555
578
570
532
492
494
496
492
505
510
502
509
514
526
535
546
535
517
507
523
532
539
547
559
564
525
507
521
528
521
519
533
543
565
590
578
561
535
528
535
527
514
522
522
524
523
508
516
517
503
505
503
503
502
512
518
508
497
502
528
539
544
539
565
611
651
691
766
833
879
891
873
826
745
637
537
459
404
383
371
359
371
376
385
430
472
489
504
496
473
456
440
437
456
469
467
473
464
456
461
494
501
470
453
441
470
491
482
481
479
492
505
493
472
475
483
491
505
517
519
526
541
537
520
490
475
495
512
505
507
494
496
499
494
523
554
557
545
536
543
560
559
541
525
534
568
572
553
534
537
544
565
588
588
578
587
577
585
598
572
562
573
584
574
567
568
552
556
573
584
589
587
590
580
556
561
592
618
615
586
573
577
585
586
577
564
566
579
558
532
547
562
530
488
486
483
475
478
491
496
465
449
455
451
455
432
400
422
442
448
441
427
429
441
423
409
421
442
463
475
481
483
451
436
416
414
421
424
429
419
414
458
479
443
423
432
434
439
461
479
522
515
492
484
481
475
475
471
469
466
453
458
462
487
518
521
522
542
524
514
531
519
518
506
497
514
524
475
447
472
479
480
493
495
496
500
476
452
469
489
486
480
505
525
516
496
477
467
476
505
508
512
496
507
529
529
510
497
498
499
518
535
538
497
491
492
504
499
499
513
500
491
478
458
464
483
494
501
515
544
549
536
526
514
492
494
495
508
511
479
492
527
543
535
502
498
530
537
510
497
489
492
518
547
570
574
542
518
513
507
507
504
505
494
488
508
522
544
545
521
505
502
500
507
510
509
535
526
515
496
485
493
543
556
553
545
517
493
493
521
538
547
553
547
524
496
493
496
491
490
502
495
507
504
512
526
529
511
497
493
482
492
537
541
533
530
519
515
521
545
554
537
523
524
543
552
534
510
501
493
507
518
507
501
500
510
504
496
499
502
495
490
509
527
537
544
553
554
525
484
480
489
516
498
488
493
508
513
531
542
541
531
517
555
569
540
523
520
523
517
511
510
541
565
566
549
554
560
539
527
524
529
536
505
499
500
501
491
489
485
492
514
519
500
495
475
478
487
502
509
505
522
563
611
661
731
820
891
922
894
837
776
717
638
534
446
380
341
336
375
405
412
411
414
419
427
475
476
462
466
462
460
449
436
427
429
445
460
457
461
474
495
497
479
460
476
476
494
518
512
482
455
454
467
478
483
489
509
520
524
531
530
525
512
505
499
492
506
504
504
504
516
524
532
519
506
513
525
522
527
520
517
522
541
570
565
577
568
527
493
494
527
544
560
557
549
559
574
603
633
613
579
587
593
569
559
566
571
545
546
576
602
620
628
621
606
601
586
594
611
598
573
558
539
522
527
527
512
523
539
535
527
517
491
462
475
492
477
455
438
438
443
431
419
432
443
443
435
427
426
415
410
434
455
454
430
411
405
414
435
433
412
401
395
408
441
486
497
475
451
428
401
400
422
456
479
472
455
468
483
483
463
441
448
456
449
465
501
514
483
454
469
483
471
479
482
482
474
481
480
485
501
513
498
502
521
530
510
522
511
471
452
435
461
512
516
488
470
445
437
461
475
468
477
496
491
474
467
470
476
489
504
517
532
528
524
503
484
494
486
482
495
490
483
486
495
500
488
506
517
538
529
494
472
454
463
476
485
501
507
507
524
548
568
565
548
503
481
479
507
531
518
499
492
491
493
491
500
511
503
503
520
516
500
481
497
528
544
544
538
529
523
511
536
538
500
497
507
526
533
527
491
480
506
518
532
548
544
503
490
516
522
502
491
498
506
498
487
497
521
546
561
534
508
496
488
506
522
540
537
504
474
482
497
522
528
523
522
516
508
517
541
538
526
521
528
528
519
486
468
484
515
525
523
527
539
542
557
560
502
468
480
479
469
510
530
509
471
481
523
554
577
583
565
548
536
533
520
519
521
502
493
542
588
594
589
554
526
521
525
522
522
528
516
504
504
527
525
532
537
524
515
509
499
476
472
486
481
478
476
491
505
514
522
514
525
556
582
616
680
744
830
887
934
945
901
817
729
643
538
450
378
336
331
321
299
314
350
386
416
426
428
446
445
436
451
479
493
492
496
497
484
466
471
488
485
472
482
493
499
503
525
530
513
499
509
513
492
508
517
483
458
452
459
506
528
514
518
535
541
519
498
492
498
498
500
516
528
537
530
525
542
560
575
562
519
494
503
539
561
575
565
553
550
559
534
525
536
550
572
592
598
597
609
614
585
548
558
576
577
565
568
577
589
605
593
578
572
590
616
595
563
553
547
552
581
587
568
560
567
570
559
529
505
500
482
489
487
477
459
460
477
473
468
475
472
465
472
486
467
436
415
385
383
410
432
430
412
396
395
405
413
404
416
423
402
403
400
406
430
439
422
401
410
418
416
441
449
463
494
511
508
484
471
465
467
457
467
477
472
478
478
475
474
488
506
505
500
495
494
481
460
455
458
479
483
459
456
475
503
513
501
483
480
468
434
436
476
496
506
502
504
518
503
486
494
494
495
512
518
515
493
486
488
488
486
517
529
506
487
496
493
495
496
473
449
448
451
466
483
501
509
498
485
494
505
503
490
492
490
496
511
519
504
503
493
490
506
504
506
503
513
530
528
525
510
505
499
499
502
523
554
540
511
486
481
491
498
492
504
510
510
506
509
504
494
486
501
508
512
512
518
532
538
523
514
502
503
510
526
526
510
502
508
550
577
556
532
531
512
496
511
508
527
535
509
496
503
518
537
533
526
502
500
495
488
496
504
527
537
536
535
531
537
522
545
547
523
508
495
493
519
539
528
525
517
505
509
513
519
516
526
534
537
542
556
547
545
526
512
510
525
520
519
519
516
519
526
537
535
521
522
519
518
495
472
490
532
562
563
547
521
518
540
556
575
604
656
715
753
783
841
927
940
838
724
625
552
490
427
376
335
318
331
354
384
402
411
442
442
459
472
459
472
480
487
478
469
454
447
455
459
481
479
463
477
511
507
503
517
538
544
526
545
554
525
490
487
506
520
527
525
509
497
492
476
473
491
494
498
498
493
522
550
562
571
557
554
555
530
517
516
518
525
542
550
546
542
526
514
542
566
569
595
593
550
523
531
551
569
587
585
586
583
581
578
579
588
598
585
573
570
587
594
608
615
606
582
569
584
588
572
553
554
548
528
512
529
540
542
538
523
511
526
535
551
540
513
473
451
443
455
452
449
435
446
461
466
442
437
453
430
419
425
427
407
389
387
406
448
462
447
443
443
445
450
437
416
423
428
445
451
449
458
481
499
488
473
471
473
490
475
469
453
434
443
472
471
449
443
475
489
488
481
470
492
537
548
521
505
494
476
493
500
508
496
474
453
461
461
476
485
489
496
495
485
470
472
484
492
499
482
479
494
495
490
498
512
519
526
512
515
513
523
522
505
485
485
501
527
528
510
485
485
499
493
497
500
487
493
529
540
526
507
514
508
491
498
494
490
514
526
524
513
501
482
473
495
522
527
521
531
518
512
509
519
531
546
554
555
533
505
501
508
521
537
545
537
540
538
521
499
478
476
499
510
516
530
519
509
509
524
521
525
541
536
506
498
519
534
538
540
533
521
488
467
489
510
518
526
523
526
523
513
511
530
534
538
533
517
510
509
507
512
534
566
562
549
526
515
521
518
482
485
500
519
534
540
563
562
563
551
551
546
549
554
552
539
516
517
529
531
536
555
559
561
552
535
518
497
497
508
523
539
535
524
539
575
632
700
772
790
812
839
862
849
817
763
704
638
577
515
450
393
365
367
349
349
390
448
462
449
442
448
481
492
486
504
511
484
464
492
509
508
505
504
488
488
505
512
514
513
512
523
507
504
523
505
481
481
480
505
505
488
484
491
503
527
548
549
538
526
525
517
521
516
499
516
530
555
560
564
551
536
532
538
524
500
507
551
618
620
575
544
546
557
553
545
548
546
554
570
595
579
540
548
571
589
597
576
570
575
586
602
600
581
558
538
524
550
563
557
571
563
554
553
567
576
570
544
516
496
501
511
528
531
524
503
489
482
476
473
456
456
467
466
480
475
439
421
420
414
426
436
403
381
380
407
425
430
442
450
443
457
461
440
431
433
437
459
479
477
459
433
414
414
446
458
459
452
461
485
490
483
483
466
445
438
425
426
430
447
456
467
471
478
492
512
531
550
545
492
456
487
497
499
486
468
467
462
467
489
501
492
511
508
483
449
431
418
433
466
485
496
515
527
528
509
522
526
498
476
469
483
497
491
484
487
496
512
527
533
516
483
455
445
452
463
475
492
487
473
468
466
472
463
482
498
545
584
613
580
516
479
457
461
465
472
496
526
522
488
504
511
493
478
486
502
486
454
466
495
517
509
493
519
542
528
500
487
499
504
514
518
517
525
541
543
536
524
515
511
518
517
514
513
495
479
477
484
492
514
540
527
505
489
477
487
494
492
512
504
494
495
506
524
537
545
522
510
509
529
548
555
546
533
525
517
510
510
535
531
532
547
560
564
537
512
486
485
487
518
544
557
543
523
515
524
517
508
493
493
519
537
536
540
547
543
532
511
500
498
493
505
519
511
519
533
555
598
663
706
732
786
826
874
902
848
745
656
572
485
415
359
339
346
371
379
393
423
439
439
444
438
455
463
482
482
474
473
478
453
451
487
498
471
438
417
438
479
518
504
492
502
492
477
486
527
532
510
507
510
511
513
491
484
517
540
543
510
497
503
507
498
492
513
534
528
525
526
478
471
495
536
561
560
541
528
547
558
566
563
557
556
563
551
538
521
534
556
557
557
586
589
584
588
602
618
601
577
592
612
596
569
563
566
558
544
566
570
575
571
561
560
596
625
613
576
565
576
549
513
515
524
523
523
514
500
479
469
459
455
467
466
446
430
440
461
466
461
450
440
441
436
442
441
447
449
434
425
444
452
438
410
398
421
425
417
418
432
439
433
439
438
421
414
434
452
476
477
475
478
471
461
452
457
468
457
436
449
488
504
513
517
510
507
498
484
476
492
498
484
467
466
471
496
507
515
499
479
473
487
501
498
498
495
501
504
497
502
503
493
487
503
514
516
503
495
495
491
479
459
466
499
524
543
527
505
484
482
479
484
483
472
471
501
500
482
501
547
563
544
526
516
495
473
455
451
462
487
494
483
483
502
522
524
538
546
515
495
469
481
491
506
522
512
498
498
515
513
493
502
507
505
474
473
489
508
525
536
542
509
472
469
487
491
509
529
537
544
516
505
526
544
561
553
526
489
472
488
490
500
529
529
518
520
512
488
482
525
528
509
512
501
508
498
482
482
504
528
551
541
545
546
518
499
495
484
489
500
495
495
499
499
511
512
520
501
493
493
507
546
547
521
515
522
504
502
526
539
538
531
535
535
522
515
495
494
488
478
476
479
485
488
480
503
534
536
546
527
504
499
506
516
518
514
528
523
503
499
502
520
519
522
536
522
505
509
524
531
547
534
504
490
487
491
513
543
553
555
550
530
512
503
514
535
528
520
526
532
515
509
504
492
486
493
487
481
476
491
524
535
560
615
673
743
815
849
863
859
846
796
712
624
550
486
411
369
353
353
354
372
399
433
448
446
464
448
434
451
459
477
490
490
485
485
476
495
514
500
491
485
469
469
472
452
467
488
500
508
513
522
521
497
482
474
491
502
508
515
498
499
477
457
453
461
474
