517
517
514
511
510
512
514
515
515
513
511
509
509
509
510
510
511
1023
1023
1023
1023
1023
1023
1023
1023
1023
1023
1023
1023
1023
1023
1023
1023
1023
1023
1023
1023
1023
1023
1023
1023
1023
1023
1023
1023
1023
1023
1023
1023
1023
1023
1023
1023
1023
870
461
243
131
72
40
23
13
8
5
4
3
2
2
1
1
1
1
1
1
1
1
1
1
1
1
1
1
1
1
1
1
1
1
1
1
1
1
1
1
1
1
1
1
56
230
434
649
862
1023
1023
1023
1023
1023
1023
1023
1023
1023
1023
1023
1023
1023
1023
1023
1023
1023
1023
1023
1023
1023
1023
1023
1023
1023
1023
1023
1023
1023
1023
1023
1023
1023
1023
1023
1023
1023
1023
1023
1023
1023
1023
1023
1023
1023
1023
1023
1023
1023
1023
1023
1023
1023
1023
1023
1023
1023
1023
1023
1023
1023
1023
1023
1023
1023
1023
1023
1023
1023
1023
1023
1023
1023
1023
1023
1023
1023
1023
1023
1023
1023
1023
1023
1023
1023
1023
1023
1023
1023
1023
1023
1023
1023
1023
1023
1023
1023
1023
1023
1023
1023
1023
1023
1023
1023
1023
1023
1023
1023
1023
1023
1023
1023
1023
1023
1023
1023
1023
1023
1023
1023
1023
1023
1023
1023
1023
1023
1023
1023
1023
1023
1023
1023
1023
1023
1023
1023
1023
1023
1023
1023
1023
1023
1023
1023
1023
1023
1023
1023
945
734
509
281
151
82
45
26
15
9
6
4
3
2
2
2
1
1
1
1
1
1
1
1
1
1
1
1
1
1
1
1
1
1
1
1
1
1
1
1
1
1
1
1
1
1
1
1
1
1
1
1
1
1
1
1
1
1
1
1
0
1
1
1
1
1
1
1
1
1
0
1
1
1
1
1
1
1
1
1
1
1
0
0
0
1
1
1
1
1
1
0
0
1
1
0
1
1
1
0
0
1
1
1
0
1
0
1
1
1
1
1
1
1
1
1
1
0
0
1
1
1
1
0
1
1
1
1
1
1
1
1
1
0
1
1
1
1
1
0
1
1
1
1
1
1
1
1
0
1
1
1
1
1
1
0
1
1
1
1
0
1
1
1
1
1
1
1
1
1
1
1
1
1
1
0
1
0
1
1
0
1
1
1
1
1
1
1
0
1
1
1
0
1
1
1
1
1
1
1
1
1
1
1
1
34
69
84
167
428
841
1023
1023
1023
1023
1023
1023
1023
1023
1023
1023
1023
1023
1023
1023
1023
1008
523
275
147
80
44
25
14
8
5
3
3
2
2
1
1
1
1
1
1
1
1
1
1
1
1
1
1
1
1
1
1
1
1
1
1
1
1
1
1
1
1
1
1
1
1
1
1
1
1
1
1
1
1
1
1
1
1
1
0
1
1
1
1
1
1
1
1
1
1
1
1
1
1
1
0
0
1
1
1
1
1
1
1
1
1
1
1
0
1
1
1
1
1
1
1
0
1
1
1
0
1
1
1
1
1
0
1
0
0
0
1
0
1
1
0
1
1
1
1
1
1
1
1
1
1
1
1
0
1
1
1
1
1
1
0
1
1
15
164
353
493
563
599
654
762
936
1023
1023
1023
1023
1023
1023
1023
1023
1023
1023
1023
1023
1023
1023
1023
1023
1023
1023
1023
1023
1023
1023
1023
1023
1023
1023
1023
1023
1023
1023
1023
1023
1023
1023
1023
1023
1023
1023
1023
1023
1023
1023
1023
1023
1023
1023
1023
1023
1023
1023
1023
1023
1023
1023
1023
1023
1023
1023
1023
1023
1023
1023
1023
1023
1023
1023
1023
1023
1023
1023
1023
1023
1023
1023
1023
1023
1023
1023
1023
1023
1023
1023
1023
1023
1023
1023
1023
1023
1023
1023
1023
1023
1023
1023
1023
1023
1023
1023
1023
1023
1023
1023
1023
1023
1023
1023
1023
1023
1023
1023
1023
1023
1023
1023
1023
1023
1023
1023
1023
1023
1023
1023
1023
1023
1023
1023
1023
1023
1023
1023
1023
1023
1023
1023
1023
1023
1023
1023
1023
1023
1023
1023
1023
1023
1023
1023
1023
1023
1023
1023
1023
1023
1023
1023
1023
1023
1023
1023
1023
1023
1023
1023
1023
1023
1023
1023
1023
1023
1023
1023
1023
1023
1023
1023
1023
1023
1023
1023
1023
1023
1023
1023
1023
1023
1023
1023
1023
1023
1023
1023
1023
1023
1023
1023
1023
1023
1023
1023
1023
1023
1023
1023
1023
1023
1023
1023
1023
1023
1023
1023
1023
1023
1023
1023
1023
1023
1023
1023
1023
1023
1023
1023
1023
1023
1023
1023
1023
1023
1023
1023
1023
1023
1023
1023
1023
1023
1023
1023
1023
1023
1023
1023
1023
978
851
687
520
432
402
242
130
71
39
22
13
8
5
4
3
2
2
2
1
1
109
508
999
1023
1023
1023
1023
1023
1023
1023
1023
1023
1023
1023
1023
1023
1023
1023
1023
1023
1023
1023
1023
1023
737
387
206
111
61
34
19
11
7
5
3
2
2
2
1
1
1
1
1
1
1
1
1
1
1
1
1
1
1
1
1
1
1
1
1
1
1
1
1
1
1
1
1
1
1
1
0
1
1
1
1
1
1
1
1
1
1
1
1
1
1
0
1
0
1
1
1
1
1
1
0
1
1
1
1
0
1
1
0
0
0
0
1
1
1
1
1
1
1
1
1
1
1
1
1
1
0
1
1
0
1
1
1
2
1
1
1
1
1
1
1
1
0
1
1
0
1
1
0
1
1
1
1
0
1
0
1
0
0
1
1
1
1
1
1
0
1
1
1
0
1
1
1
1
0
1
1
1
1
1
1
1
1
1
1
1
1
0
1
1
1
1
1
1
1
0
1
0
0
1
1
1
1
1
1
1
1
1
1
0
1
1
1
1
1
1
1
1
1
1
0
0
1
0
1
1
1
0
1
1
1
1
27
165
359
575
793
955
1023
1023
1023
1023
1023
1023
1023
1023
1023
1023
1023
1023
1023
1023
1023
1023
1023
1023
1023
1023
1023
1023
1023
1023
1023
1023
1023
1023
1023
1023
1023
1023
1023
1023
1023
1023
1023
1023
1023
1023
1023
1023
1023
1023
1023
1023
1023
1023
1023
1023
1023
1023
1023
1023
1023
1020
967
897
811
735
575
321
171
93
51
29
16
10
6
4
3
2
2
1
1
1
1
1
1
1
1
1
1
1
1
1
1
1
1
1
1
1
56
171
292
406
514
615
710
799
880
945
986
1001
988
950
895
822
715
559
385
262
224
324
536
806
1023
1023
1023
1023
1023
885
734
583
447
363
302
223
165
189
307
506
733
875
941
1023
1023
1023
1023
1023
1023
1023
1023
1023
1023
1023
1023
1023
1023
1023
953
656
356
190
102
56
31
18
11
6
4
3
2
2
2
1
1
1
1
1
1
1
1
1
1
1
1
1
1
1
1
1
1
1
1
1
1
1
1
1
1
1
1
1
1
1
1
1
1
1
1
1
1
1
1
1
0
1
1
1
1
1
1
1
0
1
1
1
1
1
1
1
1
1
1
1
1
1
1
1
10
114
200
150
78
40
20
11
6
4
2
1
1
1
1
1
1
1
1
1
1
1
1
1
1
1
1
1
1
1
1
1
1
1
1
0
1
0
1
1
1
1
0
1
1
0
1
1
1
1
1
1
1
1
0
1
1
1
1
1
1
1
1
1
1
1
0
1
1
1
1
1
1
1
1
0
0
1
1
1
2
98
312
523
674
749
763
726
661
574
759
1023
1023
1023
1023
1023
1023
1023
1023
1023
1023
1023
1023
1023
1023
1023
1023
1023
1023
1023
1023
1023
1023
1023
1023
1023
1023
1023
1023
1023
1023
1023
1023
1023
1023
1023
1023
1023
1023
1023
1023
1023
1023
1023
1023
1023
1023
1023
1023
1023
1023
1023
1023
1023
1023
1023
997
962
901
860
837
864
895
861
783
742
734
689
605
525
482
540
616
646
635
637
594
490
419
339
217
137
85
48
27
40
86
127
151
250
414
504
455
319
164
102
123
169
157
197
277
442
738
1023
1023
1023
1023
1023
1023
1023
1023
1023
1023
1023
1023
1023
1023
1023
1023
1023
1023
1023
1023
1023
676
367
195
106
58
32
18
11
7
4
3
2
2
1
1
1
1
1
1
1
1
1
1
1
1
1
1
1
1
1
1
1
1
1
1
1
1
1
1
1
1
1
1
1
1
1
1
1
1
1
1
1
21
165
380
512
645
809
1023
1023
1023
1023
1023
1023
1023
1023
1023
1023
1023
1023
1023
1023
1023
1023
1023
1023
1023
1023
1023
1023
1023
1023
1023
1023
1023
1023
1023
1023
1023
1023
1023
1023
1023
1023
1023
1023
1023
1023
1023
1023
1023
1023
1023
1023
1023
1023
1023
1023
1023
1023
1023
1023
1023
1023
1023
1023
1023
1023
1023
1023
1023
1023
1023
1023
1023
1023
1023
1023
1023
1023
1023
1023
1023
1023
1023
1023
1023
1023
1023
1023
1023
1023
1023
1023
1023
1023
1023
1023
1023
1023
986
899
887
953
898
726
579
489
457
460
401
349
331
299
244
149
100
116
123
95
83
80
118
134
76
40
22
13
7
5
3
2
2
1
1
1
1
1
1
1
1
1
1
1
1
1
1
1
1
1
1
1
1
1
1
1
1
1
1
1
1
1
1
1
1
1
1
1
1
1
1
1
1
1
1
1
1
1
1
1
1
0
1
1
1
1
5
103
205
350
597
900
1023
1023
1023
1023
1023
1023
1023
1023
1023
1023
1023
1023
1023
1023
1023
1023
1023
1023
1023
1023
1023
1023
1023
1023
1023
1023
1023
1023
1023
1023
1023
1023
1023
1023
1023
1023
1023
1023
1023
1023
1023
1023
1023
1023
1023
1023
1023
1023
1023
1023
1023
1023
1023
1023
1023
1023
1023
1023
1023
1023
1023
1023
1023
1023
1023
1023
1023
1023
1023
1023
1023
1023
1023
1023
1023
1023
1023
1023
1023
1023
1023
1023
1023
1023
1023
1023
1023
1023
1023
1023
1023
1023
1023
1023
1023
1023
1023
965
842
710
600
504
458
454
429
364
322
316
286
237
188
154
117
90
65
67
73
45
25
14
8
5
3
2
2
2
1
1
1
1
1
1
1
1
1
1
1
1
1
1
1
1
1
1
1
1
1
1
1
1
1
1
1
1
1
1
1
1
1
1
1
1
1
1
1
1
1
1
1
1
1
1
1
1
1
1
1
1
1
1
0
1
1
1
1
1
1
1
1
1
1
1
1
1
0
1
1
1
1
1
1
1
1
1
0
1
1
1
1
1
1
1
0
0
1
1
1
0
1
0
1
0
1
0
1
1
1
1
1
1
1
1
1
1
1
0
1
1
0
1
1
1
1
0
0
1
0
0
1
1
1
1
1
0
1
1
0
1
1
0
1
1
1
1
1
1
1
1
1
1
1
0
1
0
0
0
1
1
1
0
0
1
0
1
1
1
1
1
1
1
1
1
1
1
0
0
1
1
1
1
1
0
1
0
0
0
1
1
1
1
1
1
1
1
0
1
1
0
1
0
0
1
1
1
1
1
1
1
1
1
1
1
1
1
1
1
0
1
1
1
1
1
1
1
0
1
0
0
1
1
1
1
1
1
0
1
1
1
1
1
1
1
1
0
1
1
0
1
0
1
1
1
1
0
0
1
1
14
37
114
222
332
418
452
410
323
230
163
102
53
28
15
8
5
3
2
1
1
1
1
1
1
1
1
1
1
1
1
1
1
1
1
1
7
9
5
3
2
21
85
109
67
52
42
62
50
37
69
82
87
78
75
109
126
95
85
61
59
64
123
199
224
179
144
158
173
185
189
184
172
169
190
226
249
282
271
266
279
316
338
348
340
316
356
411
454
501
478
445
421
408
455
507
527
593
646
637
570
538
545
558
587
608
611
629
659
676
690
663
636
582
545
549
524
526
592
650
655
624
591
592
597
548
528
562
573
582
562
520
467
438
420
386
323
277
300
300
316
338
352
329
258
191
141
114
66
47
86
108
76
39
28
78
144
181
163
90
85
157
230
236
224
225
230
168
128
97
81
111
161
189
199
216
223
231
218
218
289
325
311
314
287
246
211
226
250
236
234
217
206
235
252
236
205
203
188
205
215
239
244
189
178
216
195
188
193
240
287
316
281
225
233
288
262
222
207
229
242
239
233
227
208
199
192
139
112
161
184
156
114
64
33
18
17
40
102
144
108
135
172
156
136
193
192
130
97
133
179
197
199
229
271
226
168
130
124
133
185
227
267
280
288
261
215
157
119
84
111
260
401
472
442
366
325
353
396
450
464
436
428
437
412
433
496
530
485
423
436
453
448
545
648
679
630
564
566
580
625
607
608
676
743
781
816
803
768
784
850
920
947
971
938
880
892
944
989
1023
1023
1023
1023
1023
1023
1023
1023
1023
1023
1023
1023
1023
1022
975
965
944
989
1023
1023
854
694
755
844
903
960
945
925
910
898
911
903
848
855
851
859
887
933
941
909
864
914
972
952
917
843
834
859
830
797
830
866
847
747
681
716
762
826
860
847
790
760
728
641
606
663
754
794
803
755
665
612
560
518
585
654
659
640
628
606
579
572
544
557
632
566
467
518
557
573
564
547
599
625
573
583
606
557
517
539
600
622
606
615
576
423
367
456
583
657
683
661
663
638
583
581
606
609
630
599
561
541
558
637
658
596
518
441
400
375
419
491
446
388
413
400
370
382
385
353
388
457
487
444
407
402
366
315
270
235
187
210
271
294
276
256
260
278
243
168
131
176
259
299
266
228
220
230
254
264
269
274
271
236
214
204
204
219
230
258
262
269
244
235
329
414
339
214
166
182
207
231
245
225
214
203
173
167
222
269
228
174
140
168
170
150
183
161
152
147
132
116
166
199
184
168
171
177
171
145
86
63
83
116
103
68
55
100
135
145
151
149
134
123
120
109
133
153
150
151
103
71
38
38
129
184
183
157
152
148
162
207
229
201
150
171
205
190
170
160
180
193
193
192
233
302
326
287
236
231
236
273
327
353
331
297
289
281
292
289
230
226
282
306
317
289
316
337
336
350
356
360
378
394
395
394
410
440
460
477
487
480
470
425
380
408
439
423
444
485
515
536
569
528
476
460
450
471
514
515
501
462
451
473
479
459
462
484
498
468
438
456
473
476
485
499
495
484
495
554
566
607
643
692
748
817
918
965
927
845
783
735
651
531
470
422
362
398
443
434
415
397
400
409
415
365
325
314
348
389
410
414
431
434
399
372
350
356
381
392
405
420
446
476
478
445
426
435
460
460
450
473
508
509
484
499
497
505
490
453
443
484
476
468
516
531
465
438
452
503
538
532
547
563
552
549
574
600
593
578
546
513
488
492
482
491
496
528
562
581
593
610
622
618
614
621
594
565
595
613
591
610
617
625
630
585
570
603
609
581
587
607
620
615
608
591
576
575
573
600
609
594
581
572
592
582
590
594
577
577
589
512
462
486
535
519
498
521
521
557
557
530
531
532
531
560
573
527
480
463
446
438
442
479
539
573
582
599
594
562
567
583
595
554
518
506
535
553
512
483
496
504
508
504
500
527
555
574
599
611
616
610
574
540
537
534
540
556
594
604
578
573
562
566
596
586
527
473
495
580
613
636
626
604
588
591
529
463
469
521
526
548
602
600
576
560
562
571
568
543
527
533
573
595
603
588
577
556
514
496
530
576
584
579
578
570
593
580
569
591
613
610
554
489
483
510
564
590
534
516
554
587
612
599
590
571
570
543
545
548
586
604
616
599
583
574
551
541
519
498
522
557
573
582
608
622
574
540
560
607
622
632
583
529
497
534
566
582
594
598
592
571
560
583
584
561
555
545
546
591
632
635
599
578
567
567
581
613
610
553
507
536
571
599
603
592
597
592
588
609
620
627
603
585
584
606
588
549
541
540
509
487
513
564
546
548
620
589
608
626
612
603
577
575
575
571
567
565
592
608
604
592
602
593
561
553
572
593
572
540
540
526
534
550
576
596
588
565
545
540
546
555
574
590
588
608
617
605
575
572
618
648
626
560
526
504
507
541
557
557
521
496
498
504
537
590
638
658
654
649
581
537
530
557
578
589
589
588
600
592
591
565
541
561
581
569
510
490
521
559
576
583
583
577
515
465
465
504
540
545
548
557
591
642
666
702
780
858
947
998
996
988
900
779
646
515
427
383
344
339
360
361
375
405
413
433
460
491
520
505
471
427
423
466
520
552
548
535
542
560
547
549
540
529
508
520
534
524
506
501
500
514
519
531
539
540
582
590
567
560
597
595
548
492
490
540
571
578
558
527
540
556
561
564
588
583
547
504
499
534
572
604
606
582
605
642
671
677
645
598
552
538
538
553
562
578
590
597
597
593
590
590
593
639
607
591
640
655
662
666
675
656
599
586
591
603
607
592
602
576
569
579
597
606
595
598
611
665
672
648
594
571
576
575
579
551
520
509
521
548
578
550
531
573
556
488
463
484
503
505
494
499
517
541
548
541
508
475
467
468
471
479
474
491
517
538
545
540
534
517
499
493
499
521
534
555
532
481
455
496
545
540
537
530
528
517
478
468
467
443
464
535
600
589
545
523
513
500
502
521
532
545
546
529
498
521
526
494
479
481
506
512
496
524
526
524
525
483
486
511
509
502
492
506
539
549
552
559
560
528
495
485
511
531
513
518
543
576
557
515
441
423
484
520
550
540
523
542
564
577
559
521
499
506
510
518
541
572
547
493
445
459
492
542
569
559
529
504
516
537
531
521
536
533
502
501
538
571
578
575
559
542
535
559
556
536
517
535
529
529
520
514
547
546
507
501
528
549
528
518
545
570
563
567
565
548
570
587
562
554
571
552
547
540
518
513
538
569
562
568
569
496
490
537
552
551
551
580
550
533
536
556
571
583
559
536
537
518
490
501
499
505
546
574
554
557
587
592
580
566
505
481
502
547
583
582
577
578
585
557
534
555
595
599
547
551
560
569
572
577
587
598
568
575
597
624
635
598
562
546
562
577
579
558
528
494
467
482
535
551
551
543
515
498
469
473
507
536
563
595
616
678
768
835
886
944
979
970
918
838
744
633
534
446
363
327
337
380
400
391
396
442
455
478
488
485
451
441
457
456
461
476
483
451
430
460
505
515
475
420
423
492
520
499
500
514
517
532
538
551
559
550
503
491
500
491
481
505
509
508
492
494
498
526
510
505
549
559
549
538
523
521
543
536
523
558
569
563
555
555
541
542
548
565
568
557
552
548
575
579
567
574
578
561
547
550
627
667
622
602
626
612
595
563
568
550
551
565
572
558
579
584
572
567
577
596
577
542
547
558
530
528
539
575
602
597
565
554
529
514
504
503
507
495
485
485
508
512
492
479
490
505
532
506
453
403
413
455
470
504
519
506
482
463
471
455
475
503
538
535
495
490
494
500
480
465
501
481
464
480
496
492
473
455
470
512
514
518
526
519
522
523
547
550
557
549
494
459
459
500
532
520
527
531
527
517
478
482
502
515
531
485
458
458
500
513
496
502
507
506
521
525
490
494
512
514
547
558
529
491
491
502
557
592
545
493
472
463
452
479
485
508
519
489
465
514
543
523
518
544
541
515
509
525
547
546
511
535
546
514
504
517
494
478
529
528
521
536
549
544
521
494
501
555
560
523
488
458
435
460
522
531
528
522
524
528
519
520
529
544
526
469
460
522
549
557
553
515
491
517
524
505
488
470
481
516
534
534
527
521
519
527
502
468
483
536
560
535
494
487
521
545
527
533
558
568
533
495
446
417
453
502
537
552
556
541
503
473
457
482
530
563
554
548
536
524
527
526
515
516
504
466
461
479
514
513
521
571
579
530
524
540
558
571
561
511
486
481
493
488
502
543
579
568
546
525
527
542
561
588
599
571
540
536
542
572
585
546
504
496
521
525
514
509
448
469
518
519
496
497
515
504
497
515
495
530
593
636
638
635
666
766
868
941
971
955
923
840
740
625
541
474
419
354
327
350
380
394
410
414
416
434
437
437
425
402
419
441
469
465
464
456
438
447
449
443
439
454
472
502
497
478
450
427
451
500
524
519
514
503
493
504
497
501
505
460
442
483
521
549
535
522
523
547
563
556
534
527
532
503
494
495
503
503
527
559
587
589
578
573
563
618
639
613
552
501
473
470
497
534
569
593
576
571
581
585
538
524
559
590
597
617
619
594
590
581
587
611
597
586
561
570
586
560
522
523
545
548
520
486
467
468
470
493
513
533
537
539
523
512
504
502
496
488
494
515
508
496
487
457
402
372
388
400
377
372
390
422
441
441
466
466
440
447
477
479
441
454
459
472
509
545
510
476
443
433
454
441
424
440
449
435
446
440
419
444
480
477
470
471
477
496
521
527
521
495
486
488
487
501
472
460
469
457
449
457
462
450
463
471
484
487
449
439
475
474
465
490
513
518
507
501
475
457
418
411
466
498
492
515
513
488
474
477
491
482
457
442
429
443
488
497
448
453
483
492
514
509
479
474
513
534
514
502
487
487
487
498
484
462
476
493
495
503
495
450
421
429
509
563
548
510
493
493
482
468
465
475
489
487
494
532
539
532
521
509
483
487
494
462
482
487
475
465
479
505
502
505
533
492
484
491
487
493
514
537
524
494
486
493
510
528
488
457
518
570
564
555
514
489
489
494
506
506
503
518
515
513
517
497
494
501
493
515
540
515
501
477
469
484
479
502
537
547
541
530
520
526
529
501
446
434
459
490
529
541
545
537
515
512
520
501
514
537
522
490
492
516
546
541
529
536
540
536
538
543
537
557
562
551
538
532
554
572
576
583
551
502
458
452
480
513
526
524
496
446
438
474
509
519
534
533
511
507
498
509
560
572
584
597
613
675
801
887
919
927
915
888
816
708
600
504
454
424
379
324
288
296
344
369
381
397
424
464
495
527
527
500
442
414
418
425
458
475
452
425
448
493
506
484
459
443
473
485
489
494
474
457
481
561
597
556
518
515
503
480
473
479
489
514
544
560
558
532
488
470
490
550
554
556
561
533
513
518
475
483
548
581
602
589
562
542
502
510
551
544
564
568
535
540
562
586
592
603
590
585
576
558
565
579
571
582
600
580
572
570
558
574
574
593
602
584
562
558
579
591
584
571
584
566
553
564
546
527
536
543
505
485
473
469
498
495
461
447
452
447
451
509
530
492
479
472
460
475
495
499
512
514
505
481
472
465
406
357
368
415
453
469
449
446
438
430
439
469
495
493
467
454
449
462
492
493
516
501
490
472
448
463
513
549
546
494
461
457
432
432
464
490
499
495
487
511
528
510
468
404
380
410
462
488
515
527
504
447
432
482
528
541
545
508
493
503
496
482
468
471
461
466
495
506
497
473
444
447
497
511
520
525
501
496
490
459
418
430
455
482
519
548
568
537
518
521
507
493
486
480
480
480
483
493
500
497
525
552
542
520
477
457
485
495
495
479
496
528
527
505
489
498
515
504
497
495
509
514
512
520
517
512
525
507
498
544
561
557
546
522
508
480
487
505
504
500
477
490
510
514
483
490
533
546
527
491
486
485
495
522
537
515
475
479
502
563
600
590
558
542
528
516
526
545
522
477
466
477
462
463
482
513
554
561
524
510
524
541
518
484
478
500
521
532
513
499
524
555
533
519
519
511
516
539
532
531
530
554
574
556
548
540
560
549
516
486
511
537
550
560
542
526
518
490
482
462
425
455
476
515
537
505
454
449
480
480
510
544
557
557
575
614
683
738
803
865
934
963
942
881
761
644
544
437
344
297
294
321
357
369
383
399
419
429
406
423
446
465
445
425
420
416
419
433
482
496
477
454
470
476
484
497
499
506
494
494
504
480
452
448
462
488
487
520
569
565
502
465
497
523
526
519
502
487
519
546
557
535
511
516
526
538
539
525
533
547
556
544
535
548
541
534
533
537
545
590
608
616
613
608
568
546
544
569
584
606
643
623
597
582
580
585
584
582
585
599
594
597
596
587
576
556
559
598
613
592
549
516
505
513
512
513
525
548
575
563
551
553
546
508
449
426
441
466
485
490
439
434
444
424
433
446
447
459
509
484
431
422
436
469
455
395
394
415
426
411
419
431
435
461
493
511
494
449
431
444
439
434
448
449
449
457
458
443
432
453
463
496
498
474
479
476
467
478
482
498
516
527
520
494
497
506
489
483
489
496
490
469
461
485
477
473
483
476
459
456
471
493
505
514
509
493
459
460
462
489
502
489
491
518
509
482
470
459
447
476
490
486
490
503
490
487
489
477
495
504
474
489
508
503
494
498
502
513
509
509
510
456
471
491
488
508
514
490
465
472
470
475
497
525
517
519
506
481
479
507
538
514
481
486
502
489
505
514
527
527
523
519
548
530
521
526
515
499
466
463
421
452
506
536
572
586
570
533
463
432
453
496
525
532
513
508
526
505
510
515
524
519
535
555
557
529
491
463
481
513
492
474
510
550
563
522
520
546
536
512
522
504
501
486
480
502
481
480
500
528
550
521
499
516
545
547
528
501
476
457
478
536
572
572
535
491
506
502
489
508
524
521
545
567
569
556
573
556
516
487
526
530
521
517
522
534
558
576
601
620
592
549
513
495
509
505
504
529
534
546
546
526
509
489
458
472
490
486
465
486
495
498
480
477
530
607
704
796
890
967
1008
1016
977
899
779
680
579
492
425
376
329
311
300
331
364
398
410
393
422
446
423
409
443
458
447
438
447
465
468
449
436
458
507
517
505
478
443
426
445
456
454
479
499
495
492
493
503
518
514
493
477
457
488
514
488
461
480
524
540
521
503
486
454
437
480
519
542
558
563
575
597
582
582
564
546
546
542
540
545
525
520
544
550
551
566
555
536
538
570
587
594
589
584
571
578
574
559
570
597
629
650
658
640
624
588
536
490
495
504
532
549
558
580
585
581
573
528
460
464
520
549
543
530
520
522
525
521
499
497
483
467
478
482
474
437
436
427
437
473
461
449
431
428
437
424
414
431
470
509
486
442
466
484
475
477
485
487
470
457
480
487
446
419
423
460
485
516
525
488
467
475
492
487
467
440
443
473
485
528
575
533
476
468
481
504
517
510
497
493
498
492
475
485
515
504
485
482
475
467
440
452
489
517
531
538
548
528
491
488
480
468
464
453
441
455
452
457
473
488
506
506
509
506
500
502
491
485
511
537
542
527
507
444
444
509
519
481
480
479
470
457
461
470
481
500
523
517
490
474
456
457
483
495
492
506
537
545
525
494
448
432
478
503
521
571
604
555
483
444
426
457
485
446
456
511
523
500
482
464
478
515
556
542
519
526
547
539
524
497
464
461
467
476
497
532
529
537
536
492
474
496
491
479
488
513
494
479
487
493
500
524
538
521
524
515
510
515
530
517
475
463
507
551
535
512
477
484
510
532
519
471
438
448
443
462
496
531
550
534
515
500
507
513
523
507
520
542
546
534
543
500
474
485
521
556
563
541
521
490
471
497
545
538
534
565
566
553
535
511
536
560
555
532
506
531
533
528
531
512
507
528
522
528
514
508
509
501
473
472
477
505
507
490
495
486
479
499
534
569
643
720
811
883
944
969
958
899
800
703
628
546
436
371
338
314
290
307
340
356
388
416
419
404
386
426
451
490
480
430
422
451
459
449
462
463
450
441
449
450
466
483
463
441
472
516
532
527
516
516
501
497
485
473
463
482
517
517
488
495
504
498
491
484
478
480
475
474
491
509
535
550
543
574
582
564
552
553
514
510
508
509
516
522
537
589
612
595
581
581
603
588
553
525
519
539
558
565
590
607
607
605
579
533
517
522
527
551
594
579
577
599
610
613
619
613
591
573
551
519
486
480
490
507
495
494
517
569
583
539
489
450
447
433
441
425
420
415
378
352
388
460
491
493
495
508
485
439
430
465
475
446
404
388
434
475
493
480
447
450
426
430
460
450
439
450
462
489
478
440
436
461
486
514
526
508
487
480
477
455
426
441
470
478
482
500
549
559
515
485
462
453
457
452
493
516
507
519
496
451
451
450
456
459
463
502
527
533
522
503
487
495
496
462
416
455
477
476
479
491
462
471
512
507
506
511
502
494
512
513
470
461
476
472
479
474
465
472
442
453
491
499
511
516
509
545
529
493
472
458
467
484
482
462
487
515
537
521
525
540
519
480
445
443
429
439
464
498
523
543
543
537
542
540
509
489
478
528
540
522
501
490
457
473
511
523
518
526
549
543
512
481
501
528
536
535
548
529
500
493
488
500
495
476
471
472
488
536
583
591
549
504
496
512
546
563
570
552
521
499
501
492
473
479
510
539
529
526
528
525
525
544
528
505
489
469
478
529
537
539
548
509
468
487
512
541
561
539
522
524
540
572
591
585
536
484
491
496
496
514
530
557
569
587
577
514
473
499
557
612
600
566
549
542
515
512
532
521
513
540
544
507
490
478
476
488
481
487
500
529
540
543
534
505
461
468
546
617
698
778
840
895
899
895
887
866
795
691
600
503
412
367
328
314
331
361
367
364
393
407
427
443
441
439
482
521
497
444
418
430
433
449
444
448
459
494
508
499
475
478
509
523
506
478
493
496
514
510
498
490
499
507
507
482
463
471
504
537
546
527
516
526
532
548
534
530
545
522
508
525
564
576
565
537
538
544
538
530
554
592
559
530
527
555
600
606
566
536
498
524
575
593
586
586
606
628
614
587
550
543
569
593
612
620
638
595
579
566
555
573
584
551
553
553
518
512
533
540
529
504
526
542
535
522
495
484
502
503
484
482
480
472
460
494
510
474
428
414
404
433
452
466
505
496
435
393
405
407
434
466
455
446
433
401
422
480
523
538
512
482
455
437
446
442
469
466
461
481
489
509
506
494
479
447
425
457
506
517
528
502
479
489
486
496
519
529
546
530
528
535
482
443
453
474
474
477
482
486
482
512
543
532
462
442
427
432
465
509
552
548
524
501
486
484
491
503
516
500
495
485
471
434
393
403
455
510
521
515
504
504
525
545
541
542
529
535
523
500
486
465
455
473
493
507
509
482
453
453
484
518
514
490
498
524
540
513
492
504
508
496
523
537
504
478
486
497
503
490
514
512
499
509
494
466
423
443
476
492
505
543
552
540
514
501
490
507
521
510
509
523
529
502
474
480
471
461
452
472
498
512
549
530
509
531
543
526
505
492
517
524
499
493
513
518
506
507
522
547
549
557
566
519
483
502
506
516
535
541
481
476
500
509
528
567
565
560
552
528
513
478
445
472
501
515
519
525
558
593
584
533
492
487
490
473
484
534
550
534
506
521
527
535
553
594
587
559
533
524
522
515
500
536
560
519
518
547
535
541
540
539
534
511
491
494
491
499
516
500
490
500
510
513
481
484
523
602
678
725
784
855
937
952
909
831
748
670
584
524
480
445
425
384
365
350
351
402
447
461
459
424
401
400
441
478
489
475
488
450
403
439
487
504
501
480
465
464
498
542
551
502
457
462
483
502
519
557
560
524
497
509
519
512
502
518
517
507
511
527
551
568
570
543
516
515
497
527
552
572
576
567
565
563
539
531
516
517
564
612
586
542
561
590
592
597
610
598
610
622
631
643
651
616
587
582
596
590
574
578
595
624
620
613
630
602
602
617
644
635
600
573
585
568
525
528
578
608
584
549
555
560
550
575
578
576
549
518
507
525
538
533
517
524
515
496
500
495
452
421
435
469
508
509
476
445
456
471
474
487
501
494
491
462
455
464
495
485
450
463
483
489
479
473
513
542
539
507
480
463
466
477
498
531
533
528
518
490
487
465
458
477
508
504
492
514
548
550
556
536
498
462
442
470
469
491
533
543
517
506
522
501
476
479
494
503
518
503
480
475
468
488
496
449
432
461
469
467
485
501
506
492
514
549
526
464
443
457
465
480
497
499
478
489
510
501
481
465
452
466
488
490
467
477
503
494
499
493
475
469
483
492
485
451
443
472
519
556
580
543
501
494
484
466
445
404
406
448
506
531
527
512
471
442
458
484
504
523
498
473
483
514
517
519
529
502
466
463
462
457
462
476
486
484
511
509
521
496
465
449
447
481
497
484
495
511
528
524
508
516
521
534
524
438
440
492
494
489
509
488
450
457
454
466
458
430
431
504
567
568
573
563
520
478
483
504
523
532
509
459
470
496
507
514
506
512
515
487
472
459
477
484
444
461
501
508
533
527
519
536
544
539
513
517
505
508
512
512
531
538
498
475
468
461
480
533
576
591
576
582
569
502
468
486
506
508
494
511
546
523
506
547
540
522
526
531
504
463
431
422
436
476
504
526
548
537
531
493
447
456
498
527
507
521
593
688
772
824
864
899
903
829
755
693
619
517
428
387
365
359
352
360
380
371
375
413
429
399
409
410
457
474
457
418
409
433
468
484
495
478
464
455
457
474
478
462
473
490
496
496
466
450
475
492
447
448
478
472
472
487
479
481
483
500
499
489
512
546
543
508
498
493
509
534
541
525
528
524
513
530
515
502
498
500
517
527
536
559
567
537
513
516
531
568
585
582
592
598
580
574
564
543
550
578
587
592
602
594
582
578
591
583
617
605
583
580
553
527
525
520
508
518
547
589
587
568
522
509
501
483
483
481
470
477
480
480
481
465
458
446
435
457
466
434
445
458
446
468
450
428
398
388
421
413
432
475
462
453
456
453
458
449
437
438
444
449
445
424
413
442
480
501
515
504
514
495
477
456
447
458
466
469
472
488
478
480
492
468
447
449
479
497
508
520
536
545
543
536
511
478
515
531
526
486
465
479
507
518
505
464
453
440
455
462
465
477
481
479
485
484
517
521
503
509
528
517
512
500
456
413
430
480
482
473
469
487
522
525
507
500
493
474
436
469
508
499
536
544
517
497
473
468
467
464
460
463
482
509
516
487
477
528
538
507
515
504
499
526
533
542
555
548
514
467
438
456
489
532
509
447
478
525
544
548
513
478
479
505
529
520
517
499
469
474
519
545
547
537
521
497
484
492
504
481
465
487
526
544
514
501
510
545
551
516
479
471
489
508
509
518
539
545
540
528
534
515
507
495
461
448
454
486
528
512
508
509
489
502
507
501
509
532
546
518
515
513
487
434
432
516
560
559
532
524
532
522
525
527
513
512
505
492
503
498
506
523
552
558
553
546
523
475
439
442
477
504
534
570
534
470
462
510
492
445
482
513
538
548
567
582
578
574
567
536
485
447
466
531
572
588
578
553
536
505
480
491
522
550
551
529
514
515
536
542
566
543
487
469
497
508
493
475
465
457
454
452
473
485
505
526
501
487
526
593
671
752
804
874
935
942
908
841
783
707
639
579
461
379
341
339
356
368
369
359
363
391
389
400
431
429
421
419
417
451
472
448
439
458
468
453
440
443
433
435
464
473
458
475
495
499
470
455
458
476
464
451
453
484
501
486
486
536
579
571
527
481
457
493
540
553
519
500
479
488
507
482
462
473
535
576
566
547
532
523
512
534
544
539
530
548
577
592
606
588
551
534
515
513
521
555
577
589
574
556
572
595
627
615
615
617
612
599
604
552
486
496
522
537
567
623
655
616
549
492
487
503
526
530
509
495
495
480
490
510
474
478
469
470
484
477
461
468
429
414
438
450
437
437
471
480
477
450
380
352
384
404
439
466
461
455
475
477
472
455
424
418
428
463
496
504
484
498
505
483
462
474
460
458
482
492
502
467
460
488
474
470
474
479
503
522
512
484
497
503
485
493
508
514
496
507
529
533
545
530
492
491
507
498
463
455
451
448
466
505
515
485
466
468
510
537
556
530
505
516
461
430
434
454
469
481
473
493
528
555
563
528
459
423
441
483
492
465
444
481
521
551
569
556
540
512
472
464
496
503
500
515
518
507
484
474
477
485
491
487
530
530
500
483
473
476
506
530
542
527
486
461
479
497
502
514
559
570
558
542
536
499
514
526
526
524
517
490
489
506
519
535
552
528
469
449
454
447
426
444
475
514
546
546
534
553
567
565
565
549
521
534
533
520
503
510
516
543
524
483
485
469
461
497
513
529
501
495
515
546
570
575
546
494
466
475
490
509
522
520
510
530
542
534
521
526
528
515
480
437
471
549
568
560
538
546
538
503
505
546
537
513
485
473
502
531
525
518
524
524
494
526
597
624
594
559
530
467
475
509
505
520
508
504
501
526
549
553
544
536
502
510
545
550
577
564
551
554
558
533
513
536
531
519
514
531
555
549
547
534
495
451
446
473
480
483
463
431
451
491
540
570
552
514
507
525
574
628
669
759
877
958
976
952
884
828
734
625
522
426
372
365
367
366
359
390
410
388
385
395
390
427
452
457
432
401
432
464
469
483
460
439
446
431
430
463
479
498
477
436
428
458
449
457
480
467
478
515
543
540
508
507
536
520
480
466
484
524
531
524
517
518
531
542
516
494
491
475
512
537
548
541
559
583
564
527
538
539
506
520
568
589
541
553
560
578
577
579
613
654
633
577
578
568
596
621
599
593
610
601
573
540
546
563
580
563
558
552
547
556
594
614
627
618
604
567
505
513
555
569
555
527
488
464
471
462
447
488
517
541
546
513
470
433
437
461
465
467
428
407
398
407
438
434
404
413
427
429
453
465
471
446
421
425
453
470
462
453
479
499
494
460
448
450
479
492
499
484
464
455
448
449
464
481
510
504
477
470
488
480
472
480
476
470
511
559
564
529
497
496
468
485
506
507
508
508
495
498
503
526
512
501
509
531
507
484
491
512
528
532
544
520
500
476
467
482
487
470
429
446
504
529
526
508
489
484
505
455
465
486
505
525
517
529
540
527
521
509
546
537
508
512
508
509
515
544
578
537
478
480
493
501
490
506
527
515
475
449
488
549
554
547
535
520
518
501
517
552
533
507
497
477
489
542
570
548
520
515
506
504
497
489
453
445
484
529
531
537
541
576
575
541
510
495
498
515
508
462
431
490
535
534
547
549
524
490
494
503
519
509
481
497
497
493
509
546
549
540
545
564
572
558
527
495
475
453
469
486
501
490
487
504
535
537
485
490
515
501
498
512
487
489
492
503
514
536
544
538
542
535
525
518
514
512
532
523
512
519
501
516
532
526
500
493
505
492
467
468
500
506
497
495
511
519
510
528
557
561
537
512
485
494
485
503
555
548
530
536
551
556
516
508
511
523
564
571
521
507
515
536
525
519
504
510
497
494
542
591
584
542
501
494
464
439
443
471
483
472
466
485
474
457
464
471
479
507
529
601
628
656
728
829
918
969
955
898
828
756
701
620
525
437
374
342
326
292
287
311
318
355
412
420
431
434
423
427
376
392
433
435
475
497
472
471
431
391
417
457
479
475
474
473
471
472
491
484
476
485
505
514
518
512
491
445
438
481
508
525
538
521
480
493
481
480
516
537
548
545
549
544
526
508
526
550
541
519
506
496
513
561
599
601
595
580
587
590
556
556
562
569
568
565
570
565
540
546
567
599
607
598
622
631
638
623
600
579
546
502
534
580
579
577
582
597
594
578
560
576
572
544
526
503
503
539
543
496
471
460
474
513
518
486
477
469
455
435
446
469
495
464
401
408
442
444
434
445
442
444
428
421
428
431
418
431
439
450
468
473
483
492
475
480
480
442
383
393
436
463
460
477
465
474
479
483
465
448
460
494
505
550
576
526
472
460
447
461
495
496
488
453
467
470
473
487
506
512
504
504
488
468
455
455
454
473
465
483
520
539
530
513
486
474
472
471
461
452
512
558
543
514
480
472
488
487
475
494
507
479
466
465
493
502
516
542
534
505
526
554
545
517
502
484
476
503
518
543
535
507
498
487
479
487
489
489
497
494
528
548
527
545
568
545
508
495
477
468
493
513
540
553
533
523
530
526
524
513
522
514
497
474
476
477
483
503
503
507
514
541
548
541
515
493
476
465
484
526
523
518
500
489
495
505
524
550
559
554
549
533
485
449
460
489
505
513
507
495
498
496
497
504
529
511
489
454
455
488
503
510
527
537
552
592
593
570
548
533
502
483
488
488
497
519
502
530
540
524
499
478
470
470
500
531
532
519
512
527
518
514
530
547
546
542
542
541
546
550
559
545
549
547
531
523
518
549
569
549
533
526
551
547
552
569
555
501
499
521
512
490
501
498
493
494
503
520
508
476
497
550
563
555
535
510
517
521
512
517
547
606
685
765
849
916
956
947
882
784
676
569
509
471
418
368
340
309
299
288
299
342
381
392
388
406
432
440
428
434
418
412
444
459
443
431
446
453
448
449
476
499
473
456
453
444
456
449
476
523
526
500
439
424
462
499
496
495
510
530
524
504
528
535
509
491
475
486
515
550
565
543
510
506
526
540
528
504
514
520
532
542
552
568
563
582
560
527
518
529
539
554
570
571
563
575
588
596
584
571
569
602
643
646
611
569
583
593
558
552
551
570
588
559
533
517
519
525
529
550
567
514
497
517
477
450
468
503
496
479
475
437
377
388
436
427
414
441
450
434
420
440
461
444
421
418
436
420
414
429
417
380
391
402
411
442
468
488
483
471
474
470
490
454
419
399
390
423
479
493
494
503
503
515
498
452
451
471
484
518
539
521
505
506
494
456
424
450
500
508
541
568
554
525
490
482
501
489
484
484
501
501
519
526
500
492
479
496
509
516
511
491
466
452
447
443
456
467
477
475
461
469
494
494
497
512
499
506
507
510
514
501
469
445
489
514
510
505
506
497
520
571
552
519
491
498
494
471
500
499
451
434
431
450
484
539
595
596
569
562
568
529
472
442
458
493
504
528
541
530
495
492
501
529
556
539
490
476
514
570
574
548
503
491
470
481
504
508
522
510
516
527
533
510
497
514
541
524
484
468
508
530
532
534
529
521
528
548
564
550
538
527
492
450
437
471
506
528
534
536
525
503
486
471
483
497
534
549
525
508
518
522
518
527
535
512
498
515
543
544
530
522
506
503
560
587
562
507
500
510
521
516
498
525
554
544
518
512
533
557
557
552
560
561
562
559
548
546
509
505
524
542
572
541
518
528
535
529
526
543
543
538
521
525
530
524
502
489
526
546
542
556
561
546
514
510
515
507
530
506
490
488
505
560
635
726
783
833
891
908
870
816
791
755
680
584
488
419
390
417
442
445
437
434
427
424
431
425
446
476
488
485
493
465
439
456
453
450
456
464
488
504
516
522
505
476
472
473
480
460
472
473
438
443
499
535
524
514
526
548
536
528
523
512
510
503
527
536
534
540
543
530
507
532
545
513
480
509
544
539
529
573
554
569
617
634
596
550
565
593
624
618
614
605
571
553
559
566
589
583
586
595
589
593
600
620
629
608
593
586
600
615
628
646
618
589
557
535
527
547
567
586
595
591
568
550
532
527
528
534
531
502
479
478
508
495
456
452
475
517
504
468
448
437
452
454
449
452
454
459
470
469
459
456
472
461
468
463
457
485
465
436
478
524
533
536
526
491
443
461
532
539
486
453
467
477
463
473
491
485
500
526
553
574
579
534
491
494
514
521
522
512
516
533
510
463
452
479
483
480
506
500
493
505
547
564
524
509
515
490
502
513
525
546
551
512
467
468
499
535
544
540
531
491
464
475
471
460
465
471
489
512
509
479
483
491
474
496
507
501
498
494
493
557
605
609
574
527
500
478
470
495
505
510
525
542
532
517
471
481
505
496
481
472
479
474
482
519
535
519
520
500
517
513
529
545
543
556
564
553
529
500
502
512
503
498
515
529
547
570
544
489
471
508
531
501
483
471
475
525
534
504
492
492
513
496
493
480
470
489
530
574
563
535
518
491
463
491
551
587
587
551
507
503
489
475
474
504
524
533
504
487
489
457
454
470
475
475
510
543
552
565
577
592
577
539
504
473
474
494
494
483
488
490
497
484
470
524
583
583
526
478
479
488
512
546
532
509
519
544
544
526
534
570
553
514
497
483
509
528
523
545
531
491
464
466
487
520
531
505
476
491
483
467
464
480
536
513
493
487
448
442
502
536
611
714
804
905
963
951
897
833
777
695
594
500
407
379
385
375
366
403
410
376
331
349
410
431
442
445
419
415
464
460
420
427
461
469
457
440
463
503
499
483
479
471
470
480
494
489
470
467
457
458
475
497
493
491
480
476
491
515
531
510
504
490
475
486
517
526
503
496
506
527
528
509
500
481
489
529
559
558
548
546
512
501
492
467
483
519
535
569
585
598
605
616
576
564
589
607
577
572
571
564
568
576
595
587
574
550
531
539
570
579
602
604
594
573
547
551
539
520
492
476
474
497
534
548
514
508
517
513
513
491
463
438
472
495
485
461
418
399
430
459
469
468
462
447
429
439
461
450
444
438
430
408
381
405
467
509
516
474
434
437
464
472
459
425
438
478
492
505
497
498
512
520
492
462
434
459
483
478
489
510
488
475
480
468
459
453
467
487
486
482
475
496
535
531
494
466
465
464
488
510
507
527
550
544
513
494
491
476
451
440
438
409
455
501
509
525
522
526
559
556
494
460
465
464
466
465
511
560
572
551
504
482
480
464
439
439
476
478
482
509
519
500
491
480
484
502
501
502
475
460
463
525
563
523
492
476
471
463
515
532
551
538
491
475
475
485
507
548
550
524
503
496
473
461
483
525
548
524
513
514
486
476
506
522
514
556
561
550
530
517
513
544
551
526
495
523
533
492
489
496
497
482
475
519
543
530
514
492
484
466
476
520
569
559
545
578
595
570
516
507
510
534
542
539
531
529
512
494
483
501
531
548
544
507
470
489
535
515
462
454
494
531
526
537
573
579
546
510
501
506
516
517
506
526
532
497
505
528
518
503
520
521
495
513
521
545
565
545
524
544
558
557
542
536
500
501
534
521
503
521
552
559
555
553
546
534
522
528
530
544
506
482
488
484
473
465
485
502
525
531
505
480
481
476
475
471
470
493
525
535
545
572
614
694
786
862
897
903
869
836
783
703
629
549
441
348
328
351
380
396
388
369
355
374
399
431
427
410
428
448
437
430
447
464
465
473
475
455
439
434
412
391
411
411
423
446
492
512
490
465
487
491
490
496
481
482
463
460
466
474
506
525
543
499
470
483
500
506
479
429
428
487
508
504
510
550
553
538
534
545
532
484
508
556
566
560
553
540
544
567
578
573
575
577
569
567
572
556
525
557
575
556
544
553
579
598
590
564
560
570
556
577
584
593
595
572
514
491
527
542
559
585
568
544
521
510
505
495
470
471
490
505
491
458
434
432
448
479
477
455
444
436
429
432
433
412
362
388
392
435
460
443
454
456
442
407
427
469
482
455
456
473
457
454
498
486
449
462
469
465
462
470
480
441
406
440
477
488
467
452
448
488
506
508
481
450
473
501
492
474
512
544
577
556
541
523
493
493
505
463
459
485
483
490
494
479
468
465
461
485
474
463
463
483
496
515
502
501
510
498
495
506
502
474
468
463
435
437
479
503
528
522
488
464
476
482
481
481
476
480
485
484
485
501
503
492
497
494
498
511
500
478
453
458
479
511
528
510
470
480
503
496
523
543
523
499
502
486
455
423
436
463
474
485
492
487
518
555
569
532
492
453
450
474
514
503
518
524
527
546
575
538
478
454
474
502
492
476
496
507
531
539
545
530
495
495
521
543
539
486
445
457
465
461
476
516
527
503
477
496
522
518
535
549
545
521
479
451
470
528
562
563
552
528
526
555
544
503
466
472
491
507
490
491
499
489
516
506
485
465
459
473
515
550
568
544
525
506
498
502
508
527
536
528
534
526
526
547
544
537
527
525
535
525
493
486
509
528
490
461
475
510
512
498
494
512
513
479
484
487
476
497
531
538
547
542
560
572
577
563
551
554
557
521
541
530
519
515
520
524
525
528
513
479
471
463
468
480
468
494
498
473
471
452
476
485
491
493
504
504
507
521
550
623
688
724
772
835
881
885
871
842
772
660
545
480
422
378
348
351
359
369
389
385
380
401
407
404
400
413
422
440
457
457
459
481
471
465
489
488
467
428
397
420
437
443
476
512
497
473
467
482
473
476
522
512
502
484
450
439
485
533
514
550
565
556
523
503
499
497
464
450
480
500
499
509
532
526
522
557
579
551
552
578
600
603
556
526
520
531
553
575
590
612
593
556
532
518
532
563
607
648
641
610
603
602
595
568
571
582
582
563
571
585
554
549
557
572
588
581
585
588
578
550
497
472
487
487
499
501
505
519
544
540
523
490
460
465
462
464
447
435
427
413
419
427
410
429
455
468
455
454
450
421
410
399
425
464
485
483
458
452
466
446
425
441
448
464
448
438
445
457
471
472
463
456
437
414
476
525
520
492
498
507
469
436
440
459
504
507
468
495
533
497
491
526
540
515
500
513
492
476
486
506
515
508
498
500
499
487
483
491
492
503
520
516
510
507
511
490
522
547
539
518
480
451
448
439
445
443
455
495
500
518
543
574
560
532
509
464
485
480
469
483
487
470
468
506
498
510
511
491
489
508
511
510
508
499
490
504
514
519
511
522
525
510
504
488
457
467
479
491
497
514
520
513
511
515
517
536
551
532
499
485
476
479
503
515
521
493
473
478
497
527
516
488
464
483
530
552
560
557
517
494
494
460
448
467
487
515
534
530
535
523
528
508
519
538
542
540
513
493
509
514
502
484
512
529
477
451
472
479
492
507
515
530
527
530
516
521
533
507
504
484
481
478
475
488
506
540
546
537
551
578
550
485
447
405
396
456
519
554
542
526
540
567
567
569
568
566
534
491
485
516
536
544
526
497
484
481
507
531
520
504
495
493
503
495
468
473
497
528
558
576
570
585
580
577
597
610
594
564
516
508
533
551
549
562
592
595
549
499
459
463
505
477
445
458
491
496
500
508
506
493
476
485
508
523
526
525
532
583
656
729
832
937
965
977
978
916
858
752
633
529
432
370
351
341
325
318
316
339
386
419
430
456
462
470
439
424
439
438
433
397
404
456
489
533
554
509
500
478
460
443
432
456
484
498
504
518
496
460
423
429
467
504
505
494
494
537
571
559
518
500
503
505
506
498
479
483
497
514
532
565
566
562
567
581
544
509
504
528
548
549
578
597
603
552
499
490
534
575
579
596
615
635
612
593
594
588
551
570
575
578
586
583
577
554
537
554
588
605
615
650
633
597
558
549
560
546
544
535
526
555
556
542
546
539
500
484
486
493
486
461
451
468
474
449
443
458
502
505
472
450
433
401
404
459
458
440
457
460
466
472
455
423
404
416
435
452
448
439
446
465
453
432
420
390
416
475
505
544
559
524
466
471
481
478
477
457
449
457
475
484
490
498
519
504
497
520
511
485
466
457
477
513
502
485
492
489
490
514
516
524
541
524
482
484
492
487
476
454
456
486
521
510
495
483
480
491
506
499
489
515
519
509
491
496
507
498
496
477
475
484
482
479
484
506
493
477
486
476
483
505
526
530
517
499
473
485
531
496
484
481
464
482
518
524
552
524
472
465
471
462
457
474
482
483
498
513
524
520
516
514
485
461
485
510
482
459
455
487
537
574
563
540
524
504
503
496
511
512
493
459
477
517
539
555
499
451
446
477
505
500
515
531
521
504
521
530
521
508
492
501
534
542
528
497
500
524
522
504
505
510
507
521
538
524
506
516
526
522
501
477
494
529
533
521
505
492
486
480
523
546
577
583
559
517
495
494
505
503
491
491
497
499
501
498
505
539
572
557
524
515
513
491
426
467
554
584
577
561
558
550
539
524
533
514
470
471
501
532
557
545
515
520
540
541
548
574
581
568
522
501
506
522
563
572
549
510
504
561
590
591
566
535
517
548
570
555
518
474
469
482
469
438
437
445
466
492
514
525
553
544
492
462
482
526
571
640
708
775
856
938
980
961
903
833
744
617
499
441
392
387
386
373
358
361
387
386
391
396
397
422
450
455
461
439
412
395
424
448
446
467
492
487
473
449
425
441
462
494
514
523
502
475
422
389
432
460
484
508
525
508
487
491
506
525
505
499
515
510
498
494
505
516
536
531
531
571
563
542
540
510
471
474
521
574
575
578
561
540
524
519
516
550
577
579
594
609
588
589
573
543
524
538
542
540
555
555
559
586
622
617
582
557
559
559
572
559
564
594
588
571
569
562
539
538
529
530
533
539
560
558
535
518
500
494
505
490
455
420
401
436
498
513
477
488
489
453
423
402
388
400
442
469
451
425
412
415
448
487
504
447
398
422
462
469
502
475
422
426
472
478
466
478
483
488
481
462
459
431
433
462
487
491
507
497
489
501
489
467
477
485
455
482
526
543
542
501
464
471
486
466
467
482
480
494
530
553
556
527
519
519
540
524
498
461
448
491
494
491
490
487
489
473
468
487
485
472
454
478
511
518
523
518
472
459
479
456
439
475
508
539
559
541
531
514
507
523
510
487
507
536
501
470
488
516
534
515
496
480
488
500
513
523
517
510
511
515
536
532
512
481
472
472
516
536
498
491
486
481
489
527
529
497
495
523
518
515
542
545
552
542
513
502
461
459
490
516
539
527
521
504
492
494
482
498
510
521
494
476
477
539
579
569
549
525
512
518
522
526
528
475
457
492
521
516
488
491
524
530
527
526
519
523
518
550
545
527
512
499
503
492
481
472
494
493
493
495
532
558
519
492
493
486
517
520
496
469
466
503
531
537
536
546
561
550
522
496
483
491
511
518
511
506
492
492
512
520
545
562
532
513
516
526
541
548
501
495
494
503
542
545
525
514
505
526
549
578
597
594
563
545
558
572
535
500
503
503
515
504
500
499
480
476
508
520
531
553
549
507
487
493
494
481
467
448
463
500
528
552
647
753
847
920
953
948
917
883
823
727
614
487
409
370
321
301
309
318
326
362
392
383
396
441
427
400
415
465
472
451
438
448
466
478
463
438
440
452
461
475
472
481
512
488
430
430
481
535
548
548
554
526
520
493
481
474
454
429
457
512
539
545
529
533
547
522
466
444
489
524
534
546
557
574
590
577
559
560
555
548
533
495
499
519
558
590
595
579
573
572
542
557
600
614
599
600
585
580
624
640
631
634
603
574
574
574
586
595
590
575
576
601
596
567
552
559
543
518
534
574
594
588
552
521
519
490
491
532
511
499
490
504
486
483
457
445
444
452
456
453
432
396
406
450
479
466
465
462
452
467
456
438
453
458
459
461
459
455
467
465
471
461
433
414
381
366
393
471
513
523
494
489
466
470
474
470
490
486
448
424
446
527
569
580
567
526
516
498
501
508
509
469
426
407
421
466
507
521
527
532
514
479
471
501
522
500
451
452
448
485
497
479
498
506
519
541
528
528
532
524
490
455
437
463
491
499
506
495
479
474
490
506
494
464
442
449
485
521
524
528
542
520
469
463
544
581
525
477
486
507
526
532
511
515
521
504
468
456
469
486
477
448
452
469
502
503
476
471
484
515
504
470
452
480
503
515
513
513
528
525
512
496
484
488
478
464
473
487
477
483
475
477
480
510
519
482
485
512
507
505
499
482
489
498
498
511
511
463
435
473
506
514
497
486
507
511
514
498
475
448
441
478
537
537
513
504
513
521
516
526
537
527
517
523
540
532
499
451
450
475
501
530
516
500
521
522
506
478
476
484
512
529
521
518
539
559
577
568
550
515
514
551
557
524
532
596
616
564
544
547
545
542
534
523
485
480
484
493
496
493
490
499
517
535
542
530
507
496
489
494
493
470
455
463
476
499
562
640
697
757
800
855
887
921
923
843
744
664
587
529
473
421
381
353
357
356
352
356
386
410
400
406
421
456
491
478
453
449
476
465
440
455
481
465
441
414
439
491
496
493
501
525
559
536
462
459
475
488
525
529
510
515
532
526
512
518
514
510
514
524
512
519
522
522
530
505
480
474
488
536
583
600
580
545
549
569
563
565
580
580
583
565
561
563
562
545
557
587
590
567
554
549
549
557
583
586
562
561
575
604
626
605
607
627
615
577
561
595
621
590
572
602
589
550
542
562
589
582
549
506
501
526
536
532
509
483
469
472
482
479
470
468
472
462
459
468
472
465
440
443
467
496
514
504
472
442
432
446
447
418
427
465
483
508
505
449
440
444
418
436
483
501
524
506
476
475
486
505
510
512
500
487
478
442
442
448
520
560
522
464
463
489
499
485
505
530
481
460
474
500
512
495
477
499
532
526
515
491
489
504
478
474
473
461
483
519
523
494
489
484
494
490
495
503
445
427
467
513
516
499
534
564
548
509
483
450
440
464
514
529
536
549
549
528
516
524
541
518
489
470
466
455
453
478
531
540
541
515
479
464
441
458
508
540
532
542
545
538
514
487
476
505
516
530
539
525
485
501
519
531
528
461
446
487
496
502
524
518
489
484
501
542
542
536
522
500
496
515
550
552
543
552
544
518
509
489
465
460
448
449
477
503
487
487
522
495
461
503
550
567
557
547
538
550
554
535
551
551
508
459
479
524
518
487
482
489
467
475
506
531
556
551
505
455
449
488
521
538
533
537
559
550
545
557
530
510
520
512
537
556
555
537
514
513
529
540
560
577
543
527
516
515
490
477
489
480
507
526
552
547
544
518
518
518
512
503
515
520
525
547
565
588
611
686
772
860
902
911
932
937
868
776
665
580
512
447
373
339
331
346
365
402
453
468
478
478
478
513
509
478
467
483
482
495
497
506
526
527
518
492
449
419
434
466
519
547
519
479
479
505
536
521
488
471
468
511
552
533
517
522
524
518
523
532
546
553
538
536
504
493
482
524
503
492
531
547
571
599
600
592
568
548
547
548
548
540
556
547
536
532
519
535
566
578
570
573
564
581
587
567
546
539
527
526
526
530
545
554
543
544
535
553
563
556
541
551
564
544
510
493
491
480
482
516
526
507
520
540
494
462
457
472
481
470
469
474
465
470
464
454
436
431
448
456
414
385
388
395
426
468
463
455
453
422
391
413
441
449
474
484
483
451
436
460
462
468
446
418
446
463
474
474
447
435
454
469
455
483
499
506
496
489
470
472
482
467
465
495
509
489
481
476
486
464
480
465
431
473
526
531
530
506
462
442
407
419
480
493
494
498
516
499
486
473
475
477
468
490
499
515
497
475
474
484
501
518
502
487
467
426
450
484
466
462
508
524
540
558
560
517
468
439
420
409
434
496
545
537
510
505
522
531
520
508
492
481
491
518
526
534
527
485
453
463
491
510
530
532
515
498
482
494
497
495
499
496
505
501
491
522
535
526
497
480
483
485
519
544
548
537
497
484
496
498
519
540
550
552
522
486
507
535
547
504
477
511
530
504
474
479
514
521
490
496
513
506
501
524
512
499
487
500
498
504
509
516
530
539
530
526
528
508
493
504
507
488
482
490
491
494
521
528
518
519
505
506
523
507
525
556
555
527
502
510
520
505
532
552
584
589
564
538
546
518
500
499
516
471
490
555
578
557
518
528
531
509
520
487
506
522
527
515
501
492
503
509
512
517
523
501
493
492
551
620
687
764
851
915
934
914
878
818
739
653
557
452
377
357
371
389
393
390
397
439
443
423
416
417
418
403
406
452
466
419
412
442
500
527
512
471
450
447
449
450
439
452
474
513
521
519
538
520
440
406
443
483
480
488
509
509
494
496
497
485
495
510
517
533
541
540
521
488
462
497
561
587
596
565
542
491
449
452
483
519
531
539
542
556
593
589
566
561
532
516
547
563
573
606
620
614
611
607
598
586
587
587
583
592
593
593
564
539
514
516
535
584
585
557
569
581
559
525
513
520
532
530
525
524
546
555
545
532
549
487
419
440
469
487
491
431
356
393
447
482
509
501
458
432
428
427
439
457
446
445
447
444
443
448
440
445
469
498
515
513
477
468
475
462
452
453
450
468
472
463
479
474
479
487
489
500
505
491
492
484
482
469
469
459
440
481
492
470
496
567
593
565
537
496
451
387
402
478
525
539
512
482
499
535
549
534
516
512
509
495
492
474
473
485
494
510
520
502
507
535
552
531
514
478
467
473
451
434
461
496
537
541
533
532
509
497
518
522
515
476
444
477
501
525
556
562
536
532
510
475
480
506
499
495
500
522
505
508
548
532
531
489
451
478
511
526
537
524
491
479
483
493
518
503
498
514
539
543
539
518
490
461
485
512
522
520
520
542
523
505
530
553
527
527
517
453
403
421
480
491
518
531
517
516
508
513
549
558
548
532
525
500
475
503
528
517
519
533
530
500
508
479
462
471
464
457
482
496
504
501
528
545
525
503
522
524
530
547
545
521
505
482
479
500
520
512
506
509
487
459
487
532
530
530
556
568
561
552
555
550
535
528
541
550
538
525
531
536
514
483
470
471
508
504
484
504
519
533
511
485
469
459
459
449
464
508
536
573
591
616
654
705
728
778
861
907
900
867
825
755
674
583
458
406
383
381
381
374
381
378
393
427
459
469
453
438
432
458
482
465
439
448
493
500
472
455
475
478
465
467
501
524
513
493
476
486
500
501
515
512
503
495
522
511
488
483
505
502
483
486
499
505
508
502
508
521
529
503
500
486
490
499
506
547
593
585
547
537
546
550
544
586
595
559
530
502
485
519
578
617
609
576
563
571
569
563
558
543
552
580
579
582
613
598
588
602
597
567
572
589
616
615
590
574
575
552
527
527
533
525
512
531
558
571
557
524
496
502
528
515
459
426
447
462
419
404
422
404
400
411
433
448
462
462
474
463
456
448
437
426
430
418
429
467
485
489
509
509
449
412
437
456
437
423
427
458
490
510
547
525
453
417
406
417
426
441
464
482
501
517
527
499
488
507
508
510
528
512
498
491
496
463
444
450
497
517
530
524
493
502
498
454
434
477
492
505
499
468
476
493
494
510
541
552
505
451
456
471
469
461
468
480
490
496
490
504
478
469
478
462
462
510
500
468
476
502
457
438
438
453
477
489
529
539
537
526
508
517
523
503
512
525
503
484
481
461
442
455
490
482
466
457
499
526
538
549
514
485
480
484
490
512
509
516
552
564
544
544
561
542
500
501
514
513
513
507
489
473
479
494
522
531
526
517
519
521
499
523
542
526
522
525
516
517
503
526
530
500
522
565
567
545
528
499
470
478
479
485
499
513
533
553
559
560
547
531
490
484
519
517
532
513
495
494
485
500
529
549
507
483
480
484
505
537
537
530
551
561
566
544
522
504
478
487
536
563
560
497
447
489
546
558
543
522
512
537
572
575
550
537
551
550
517
531
560
545
522
501
499
527
531
536
558
554
534
507
484
456
472
516
534
523
499
488
493
448
435
486
490
473
438
451
507
549
585
622
639
717
822
881
899
924
906
837
748
646
554
452
380
340
308
300
348
381
390
391
404
415
419
436
442
450
443
456
453
416
405
402
389
414
455
484
474
482
513
499
469
441
434
448
462
484
523
521
493
504
497
489
481
486
487
483
477
479
466
443
444
485
498
512
555
540
534
550
556
569
555
547
528
526
530
521
534
518
501
513
538
545
540
535
554
570
574
571
555
588
607
586
562
547
541
565
584
599
594
569
568
581
593
585
574
564
582
606
637
621
590
580
571
549
545
529
493
492
505
508
461
471
508
532
516
483
479
474
482
470
488
487
486
486
446
437
455
466
467
449
421
354
333
349
360
375
407
408
417
430
415
402
402
444
476
469
443
429
432
442
449
439
425
410
429
428
419
418
449
478
501
517
484
473
474
463
444
424
413
404
423
452
478
485
504
509
504
477
453
428
442
495
526
520
505
520
527
520
539
516
490
475
488
504
505
499
492
484
474
472
455
464
484
488
468
443
450
481
495
528
526
512
512
510
490
466
439
431
449
497
552
581
561
521
510
513
506
495
491
484
466
462
491
526
545
536
528
490
470
496
512
489
450
446
468
476
481
516
548
591
585
538
502
483
481
483
511
532
512
495
487
511
563
567
526
496
500
484
492
485
479
486
489
500
502
531
551
547
541
536
520
536
529
480
475
514
528
535
544
574
554
519
519
533
517
483
499
527
505
485
497
512
512
527
542
520
515
528
521
516
529
534
557
544
515
501
479
524
533
517
521
545
542
516
506
522
524
528
536
519
503
512
506
471
496
521
539
539
526
511
520
551
566
538
512
525
557
546
543
521
520
527
524
531
517
499
529
558
549
529
507
537
557
543
575
574
559
517
497
538
552
559
540
542
566
563
539
500
511
531
506
497
508
512
526
480
474
480
494
481
486
476
480
479
478
507
537
581
614
670
772
892
968
976
966
921
839
752
644
523
431
395
353
316
323
351
379
371
369
361
392
421
430
424
425
453
463
461
472
466
444
417
459
482
491
499
469
425
448
466
470
481
474
464
475
464
433
463
489
496
474
477
514
507
491
500
501
508
514
494
505
481
480
492
520
541
532
522
508
490
497
534
569
593
585
568
537
521
548
565
563
539
520
525
539
551
555
552
547
553
561
593
614
607
595
605
599
595
567
562
556
562
576
592
598
616
612
583
570
579
566
556
553
569
593
593
564
518
479
455
468
514
533
521
532
553
535
519
520
506
488
470
475
482
479
480
448
430
434
448
456
429
419
382
350
392
432
455
447
444
448
462
470
458
450
440
437
437
406
423
452
457
485
508
505
501
502
493
476
466
451
443
423
461
490
480
463
476
499
531
533
511
493
468
459
499
490
456
469
533
518
526
552
552
527
498
484
498
493
508
523
502
495
506
501
485
491
496
502
512
516
513
509
507
499
478
481
492
500
536
536
484
452
477
506
516
510
495
486
491
476
439
465
532
548
560
566
527
503
515
516
473
464
494
521
540
548
553
536
483
456
472
479
459
475
540
556
553
547
529
485
463
463
485
502
492
499
517
528
534
524
492
466
449
449
489
509
525
548
551
560
553
538
511
515
530
538
529
526
501
465
457
511
543
537
527
522
540
506
491
459
450
479
481
496
491
501
529
499
492
509
544
557
542
552
560
554
527
531
530
518
519
516
513
492
477
481
496
483
463
473
495
519
561
583
554
574
569
527
490
508
515
517
508
498
538
565
567
554
534
547
534
518
513
502
485
469
477
517
546
571
576
549
538
542
536
552
566
548
554
576
605
578
534
533
536
515
531
558
565
534
539
552
538
559
580
560
573
547
505
489
466
499
554
542
539
499
463
441
446
453
487
512
514
500
489
532
596
674
740
839
943
1001
1014
958
891
866
811
666
510
425
385
369
350
322
320
372
396
382
377
365
378
403
439
469
472
460
433
428
459
486
493
500
491
489
478
445
436
446
480
468
461
481
477
455
442
453
474
494
496
472
462
475
496
490
504
488
460
501
552
551
536
519
516
510
511
481
466
503
536
552
583
566
541
523
554
555
533
541
552
525
504
487
523
568
577
578
565
549
565
599
605
585
577
580
616
638
613
591
558
513
478
519
580
610
612
594
583
588
578
542
548
534
536
571
577
552
528
516
537
558
536
535
550
552
520
486
472
469
441
446
444
447
433
424
444
435
448
466
449
427
418
425
448
449
443
460
477
459
452
433
421
431
445
435
422
403
401
417
387
398
473
517
519
492
471
470
467
473
483
487
478
458
446
450
446
467
501
508
504
497
494
510
523
522
508
494
482
478
487
486
445
435
433
443
514
566
569
551
516
461
462
481
472
471
511
527
501
491
494
502
503
506
498
485
466
429
410
429
472
491
525
504
501
517
529
536
545
548
499
464
470
486
509
532
540
533
518
502
485
479
479
497
498
499
493
491
492
486
485
487
459
434
485
514
502
526
530
504
512
523
529
543
556
528
505
520
516
514
501
444
467
477
495
513
503
519
519
510
497
480
521
563
534
509
499
507
513
516
527
543
541
522
494
469
490
517
527
507
510
527
505
494
484
472
480
493
508
536
544
551
544
529
500
459
455
455
480
507
516
515
520
523
553
563
487
453
457
474
484
509
521
536
557
559
535
531
542
541
533
518
516
508
502
502
455
425
466
508
538
499
483
482
499
506
516
524
504
472
508
542
546
555
527
539
537
557
585
601
605
592
599
577
535
497
472
485
504
504
531
532
526
527
515
494
479
488
483
496
521
516
498
508
506
510
485
503
500
461
455
473
498
578
623
645
712
845
959
1003
975
929
892
832
727
610
493
403
345
302
301
316
317
327
335
349
394
434
479
480
448
445
448
448
440
430
400
417
440
448
461
459
444
430
456
488
469
466
475
483
482
497
477
494
533
524
488
452
430
451
470
498
510
513
478
461
491
513
526
547
550
535
507
482
492
500
501
503
518
507
533
553
558
561
553
534
524
540
575
599
593
621
608
576
573
585
592
590
573
580
566
555
511
495
538
574
556
516
562
611
620
632
648
643
630
611
594
543
498
518
590
609
604
592
550
530
522
513
508
497
492
512
532
533
513
464
402
415
474
489
458
424
403
448
490
462
419
404
429
466
474
450
424
424
421
393
399
426
435
468
468
457
455
459
450
482
474
420
374
404
462
509
512
474
438
431
481
503
473
463
510
545
484
409
422
451
460
461
480
500
515
522
524
503
481
463
494
491
469
482
516
510
518
525
530
523
501
502
489
461
438
464
517
511
486
461
451
474
470
464
464
415
418
507
591
587
543
511
494
501
499
506
520
522
506
447
448
481
530
565
550
521
477
440
451
486
503
477
449
446
466
519
559
582
570
536
498
490
512
478
470
477
479
528
520
480
486
537
563
563
579
565
542
538
534
527
502
464
481
498
523
546
561
544
531
512
537
537
505
508
508
493
496
516
498
496
493
483
485
522
551
558
556
552
493
484
524
560
543
548
547
514
489
489
506
506
485
472
487
528
542
559
568
565
559
534
512
495
515
534
524
533
512
504
494
517
534
519
508
521
521
532
549
561
533
492
518
553
515
503
546
573
570
583
583
574
563
554
526
532
524
519
508
486
509
527
530
559
557
525
483
462
462
462
481
522
556
544
516
497
511
506
519
510
484
495
518
576
613
620
664
742
831
887
927
961
953
834
745
658
546
442
356
305
305
321
339
328
342
386
399
441
478
472
450
418
427
469
491
485
479
461
438
451
470
480
492
495
495
482
478
455
451
509
519
560
560
529
533
556
573
552
521
501
499
515
491
462
466
479
512
530
505
477
508
526
514
524
558
581
547
525
537
573
567
560
582
604
608
580
546
564
576
593
598
585
576
587
580
574
532
542
591
602
618
615
592
577
574
579
600
592
601
592
557
558
619
643
646
658
648
622
584
590
606
578
581
559
548
532
507
486
484
477
492
504
483
478
490
473
463
460
479
499
526
534
505
461
414
420
442
457
488
491
422
373
394
461
486
488
453
423
442
448
457
471
453
446
448
432
428
451
482
513
531
536
488
461
482
522
521
471
446
459
474
468
476
494
495
498
483
479
483
488
491
515
494
463
471
488
476
467
492
499
455
467
486
493
502
514
505
481
485
513
526
515
499
468
467
470
490
504
486
445
431
435
427
450
476
488
499
490
497
499
509
536
538
524
489
462
461
468
464
448
471
493
498
511
545
544
522
503
478
453
439
456
486
492
471
461
504
500
482
496
510
517
524
493
467
471
481
490
509
512
502
532
548
544
523
515
522
510
496
487
443
448
470
468
464
450
466
529
573
566
521
520
542
516
484
491
479
477
487
498
514
513
512
494
489
497
505
524
512
506
503
513
499
506
512
506
527
503
465
468
491
483
459
469
471
484
497
493
491
469
467
507
531
526
552
582
554
530
536
543
537
523
513
507
540
558
572
522
499
483
470
439
444
470
494
524
537
513
491
495
479
461
463
450
484
531
560
568
545
581
663
755
801
794
828
856
844
780
709
640
582
522
486
424
369
325
302
292
296
324
377
407
449
480
479
467
425
432
461
461
446
469
471
427
429
456
482
490
477
481
467
462
461
454
447
466
474
496
454
437
479
491
493
524
521
514
509
508
520
507
492
491
499
503
493
504
524
522
536
537
525
487
494
504
542
577
584
553
512
479
479
512
554
582
595
575
579
599
596
562
556
559
566
598
599
597
615
613
575
542
564
589
567
577
600
591
588
558
562
567
564
559
559
590
579
566
563
530
508
525
530
522
502
518
522
500
499
496
455
451
485
482
475
470
475
478
482
479
463
443
442
453
437
427
441
457
464
440
433
456
463
464
462
458
466
473
460
453
462
471
460
437
376
400
440
468
500
510
503
491
470
453
460
488
501
475
465
497
518
516
513
493
491
485
478
503
508
506
547
549
509
483
460
474
462
476
486
481
482
506
494
463
472
507
499
501
542
530
474
453
462
493
525
542
561
578
562
537
512
493
484
470
426
420
469
541
559
519
488
484
473
477
488
491
508
511
493
508
506
473
462
461
490
529
561
595
579
560
543
515
478
469
488
489
502
534
539
537
542
534
514
499
481
474
491
488
481
500
511
516
503
477
480
478
505
573
581
558
549
534
501
510
553
573
568
495
434
454
531
557
522
503
495
517
560
554
536
532
538
542
513
526
534
522
497
491
515
485
494
506
520
517
515
560
612
621
602
578
538
554
554
489
442
414
440
457
468
457
453
489
506
457
387
343
402
525
589
631
660
710
773
835
880
926
939
888
797
744
676
574
463
402
343
342
324
265
295
374
439
464
442
438
448
427
425
448
448
422
423
448
461
449
448
440
432
436
437
455
503
513
476
466
479
497
476
430
445
476
487
488
491
475
427
418
445
451
437
447
508
555
544
495
467
463
434
423
432
425
448
473
478
487
479
473
501
520
554
579
590
547
503
508
509
546
571
592
558
534
560
577
589
591
587
579
591
603
613
611
598
623
622
624
653
642
575
516
517
519
554
595
612
643
643
627
612
606
603
593
591
551
515
521
517
513
513
487
457
468
470
458
440
435
447
460
443
447
458
408
337
365
451
467
413
390
399
407
386
385
391
394
410
437
446
445
438
419
416
439
473
487
526
521
519
509
489
461
462
461
441
405
399
412
420
451
492
526
523
493
479
486
496
504
490
476
472
472
463
537
609
589
557
532
528
545
551
553
559
541
538
515
513
551
571
590
610
536
454
447
512
569
572
550
560
618
638
628
615
585
540
513
526
520
530
517
507
503
486
480
499
542
531
472
404
373
415
471
482
474
447
447
488
522
522
509
516
516
476
443
458
502
526
552
553
558
565
545
547
565
560
504
530
566
588
622
630
613
612
638
616
594
585
626
653
676
698
702
703
689
662
617
569
544
546
550
583
599
594
596
594
569
548
586
598
587
547
506
492
485
490
490
553
600
564
478
405
361
351
391
452
452
387
340
330
335
337
346
322
303
299
321
348
341
330
287
265
230
174
169
237
312
340
311
305
356
381
357
346
342
357
384
436
482
546
630
710
766
804
811
785
703
590
488
391
319
277
239
192
212
227
230
235
290
359
407
428
436
418
414
419
413
398
399
419
443
455
436
418
418
432
472
481
495
539
534
507
535
501
476
480
484
487
515
556
591
608
581
550
533
524
506
457
472
512
539
585
577
537
505
484
507
555
548
526
563
566
526
504
559
605
610
597
615
641
613
538
516
527
536
557
555
552
554
543
573
593
588
567
533
538
580
625
642
605
582
589
560
546
590
630
651
653
639
612
600
602
599
563
528
559
574
564
553
548
541
534
494
490
524
532
493
470
493
524
525
515
517
480
484
492
495
508
502
468
435
431
421
447
492
524
536
536
516
499
461
427
409
442
483
495
470
462
475
491
506
506
522
518
502
515
504
492
502
541
563
560
520
493
479
495
514
539
541
512
506
514
515
522
517
501
505
495
499
525
559
575
552
514
470
467
492
502
531
530
533
540
560
557
546
572
522
489
503
481
465
460
479
520
546
563
559
556
513
517
540
523
477
477
502
509
545
564
548
501
496
537
564
555
527
504
506
503
497
522
522
486
503
560
590
566
529
488
445
453
470
508
546
556
531
523
532
534
538
552
564
543
527
547
592
557
517
503
528
564
560
543
544
552
577
600
599
569
556
564
559
595
633
644
652
647
624
626
607
585
570
566
592
623
634
649
663
674
640
591
540
518
533
578
602
604
624
586
545
521
534
551
560
560
551
562
572
588
572
560
576
604
609
567
544
529
515
518
548
569
566
552
553
588
586
548
522
513
537
572
586
616
623
593
548
529
534
535
553
558
541
562
534
504
483
487
505
507
517
538
548
518
482
472
459
450
462
490
539
569
584
599
669
713
756
839
893
921
914
890
855
790
666
549
460
401
368
357
344
329
322
363
402
425
449
434
437
456
470
452
430
415
441
473
484
463
429
455
477
479
499
521
531
504
482
485
471
476
502
532
527
487
464
478
503
487
481
460
442
465
497
470
444
441
476
528
568
576
575
573
559
547
544
520
505
515
536
559
580
592
570
535
495
496
527
530
518
500
504
540
564
578
585
544
529
548
564
514
506
548
569
570
608
622
619
616
604
578
575
574
572
568
550
544
547
528
518
511
502
524
532
520
498
502
491
472
488
465
455
485
483
461
477
490
465
458
435
411
415
423
435
452
456
424
415
431
461
477
464
449
422
437
406
368
388
425
437
445
450
451
475
499
481
418
399
436
434
422
448
472
483
480
452
448
467
500
512
495
455
464
489
516
502
490
509
504
468
469
478
499
499
488
481
464
487
489
484
479
459
457
465
485
495
491
490
491
511
519
553
558
506
433
421
450
462
462
455
467
471
489
501
489
476
480
491
493
486
498
507
485
445
442
472
493
491
494
485
471
461
469
479
512
536
537
494
464
478
501
510
492
462
477
511
502
498
522
520
504
473
444
428
425
459
488
492
489
490
505
545
543
519
489
486
480
463
491
521
538
532
513
542
541
503
499
515
525
496
476
458
462
446
438
482
478
462
478
482
480
516
543
542
540
531
534
519
514
515
506
502
524
499
464
438
412
409
455
494
513
530
556
551
520
465
469
477
471
463
456
482
504
517
530
511
471
461
490
507
499
487
507
514
491
515
546
510
480
480
493
523
545
527
516
488
459
472
506
519
515
455
436
476
497
507
507
495
503
508
494
474
471
478
511
540
538
520
517
517
515
523
519
510
519
503
484
536
559
548
535
519
514
516
520
509
497
515
522
521
519
498
461
463
458
449
453
461
467
498
506
478
469
487
488
485
465
441
492
517
569
627
691
742
823
887
909
889
854
817
756
683
606
516
434
401
363
349
328
317
316
321
342
382
421
431
419
408
441
458
471
449
444
421
422
438
441
440
434
450
486
481
451
455
399
377
408
427
439
453
456
470
473
470
494
508
489
472
478
502
490
463
454
466
480
494
513
516
509
527
508
470
451
474
499
512
519
522
513
508
532
548
527
520
505
517
545
575
580
565
576
593
621
611
577
536
540
551
565
577
597
604
582
557
557
513
505
587
632
643
622
607
621
610
552
551
597
589
576
544
534
536
568
556
521
508
529
524
510
510
531
527
515
490
479
478
449
427
410
412
454
479
484
493
477
426
410
418
440
443
449
445
473
475
466
437
430
436
434
442
456
429
416
423
450
476
483
486
493
478
463
487
507
503
483
495
506
510
495
483
482
456
461
473
480
485
497
505
507
496
506
511
497
471
496
515
514
497
486
493
532
561
587
578
537
531
512
487
498
520
512
495
503
502
480
510
514
496
489
494
481
500
521
490
490
510
521
516
506
546
582
559
529
505
473
484
498
508
477
488
500
511
511
502
500
488
496
487
477
496
521
519
525
526
511
502
492
495
519
506
500
510
544
568
568
552
544
543
520
496
501
512
517
496
485
523
552
552
532
489
452
463
494
506
491
498
536
558
571
571
574
568
545
529
508
521
560
559
546
537
534
519
558
593
584
559
528
487
465
478
499
496
494
522
548
549
555
540
530
517
535
561
552
536
519
522
516
525
545
553
554
555
572
525
465
460
461
454
491
565
620
598
551
523
537
532
535
525
486
493
503
506
497
485
530
571
556
545
564
573
544
479
451
491
519
527
544
549
536
524
522
523
516
499
501
497
503
499
533
539
542
562
572
578
580
561
552
550
551
535
534
565
588
562
528
542
562
562
508
473
502
501
475
466
504
538
547
508
496
502
479
471
462
469
476
502
524
522
533
558
571
628
712
800
890
945
935
874
808
751
722
638
553
466
407
407
412
354
330
374
407
393
383
412
422
423
425
455
501
497
449
421
387
373
397
435
460
481
469
450
447
451
426
401
403
434
427
432
479
517
540
536
519
502
464
472
505
478
469
481
474
471
449
451
480
512
534
539
534
549
550
523
523
543
535
503
487
487
522
551
554
553
545
546
535
544
539
541
540
508
484
534
572
582
608
619
615
609
580
578
573
560
560
586
581
589
587
577
598
625
633
626
591
546
513
519
537
556
563
580
604
575
550
549
520
498
469
452
468
483
496
496
463
418
419
454
474
488
491
518
534
493
451
420
422
416
422
430
444
444
434
418
434
421
416
409
415
436
449
445
428
432
468
476
455
453
449
463
497
516
503
478
474
469
480
470
466
484
509
536
526
503
492
485
475
467
477
478
467
436
448
491
513
529
539
540
537
541
533
494
462
473
502
498
523
557
542
521
508
461
446
451
456
497
507
536
542
528
510
496
490
497
526
542
530
500
483
497
529
537
517
483
478
490
476
488
526
531
507
492
481
488
500
485
497
496
493
483
473
523
555
552
529
540
554
525
490
485
500
507
507
490
480
491
490
483
471
466
496
529
500
481
486
529
557
544
539
542
554
568
537
513
509
498
497
498
484
464
481
511
532
507
482
486
520
544
540
530
531
557
550
525
508
479
470
479
487
505
510
522
547
531
525
521
536
523
513
493
514
539
517
479
485
504
520
531
525
527
530
532
512
517
523
515
527
519
506
496
488
486
460
458
481
500
543
560
551
545
548
547
544
523
496
512
530
522
521
529
510
504
491
492
503
482
468
494
525
516
486
484
507
534
548
553
561
555
548
495
481
497
497
527
548
544
552
565
559
572
564
544
546
541
551
555
515
505
502
495
481
492
519
512
524
552
544
502
479
480
471
462
489
527
541
548
518
496
491
475
455
450
484
555
610
634
700
815
914
982
1000
954
889
822
721
613
543
463
408
362
338
356
359
363
374
369
377
395
416
426
432
464
454
448
441
430
447
449
440
455
449
449
461
462
480
492
472
460
463
470
489
498
486
462
457
475
488
491
518
544
506
478
464
464
481
505
504
481
490
482
480
499
505
500
525
537
543
559
563
572
607
594
552
544
537
520
546
552
532
547
559
545
549
572
541
530
537
553
568
571
564
578
579
566
569
579
585
602
589
540
544
587
614
647
648
625
585
557
556
551
544
539
545
558
562
562
548
510
494
479
473
499
520
519
487
500
508
498
477
456
421
438
463
459
457
446
467
443
427
404
390
409
418
436
435
428
408
404
401
413
445
462
429
429
415
432
460
486
493
485
455
417
421
426
444
466
471
484
485
489
490
477
453
461
500
516
493
483
483
480
487
496
497
492
515
507
473
476
496
508
493
495
520
518
483
472
494
542
558
519
521
516
480
455
444
466
514
547
526
481
481
518
507
493
488
464
453
461
488
528
560
545
531
501
465
461
467
488
514
540
547
525
496
497
475
488
498
507
491
486
464
468
483
467
512
548
508
517
526
491
471
491
522
526
549
577
557
507
466
427
438
472
511
536
554
535
496
469
489
510
516
512
503
513
507
484
475
502
512
537
532
491
477
486
499
524
498
463
514
569
586
578
558
511
461
470
499
502
499
498
489
498
524
515
485
484
491
495
498
508
522
524
508
508
504
528
512
502
499
521
550
550
524
496
480
503
496
479
479
489
498
496
486
465
473
520
530
537
548
550
536
538
533
518
536
546
547
511
493
502
505
478
458
498
499
488
506
534
515
488
494
515
500
494
516
524
557
582
581
579
587
583
573
567
557
527
540
553
562
560
528
508
515
513
511
529
525
517
500
487
484
498
492
491
507
523
532
529
526
537
515
479
488
478
448
460
462
476
496
537
608
691
776
859
940
974
971
935
880
827
726
618
528
444
373
344
327
286
288
316
360
375
367
366
393
401
399
422
445
464
464
473
508
502
457
466
486
478
431
432
464
459
460
451
442
420
435
476
474
469
482
500
506
469
488
504
499
507
535
527
516
514
528
543
534
511
468
440
456
479
474
494
532
551
537
509
533
529
508
518
532
542
579
610
607
568
506
492
552
618
641
613
579
569
567
547
569
609
614
607
584
569
580
584
566
575
594
583
600
622
605
599
572
585
585
559
571
588
576
556
552
538
508
530
541
531
530
512
496
483
473
469
442
445
452
426
441
462
462
442
414
412
425
446
461
465
468
445
423
419
421
444
444
426
450
461
437
409
418
446
457
455
452
455
417
405
444
478
500
489
446
445
462
477
470
455
437
454
471
482
482
474
486
498
512
514
486
513
520
499
486
496
514
509
520
516
490
482
508
509
485
448
448
505
537
498
456
449
460
475
504
521
511
516
514
499
488
505
512
500
474
455
443
458
499
508
466
473
500
512
488
433
440
489
510
490
481
490
520
538
524
513
518
486
474
480
473
463
482
520
529
526
484
461
486
489
486
488
491
509
532
539
518
501
483
470
468
472
484
508
538
549
501
487
508
521
505
512
496
500
512
510
535
545
521
501
484
478
452
463
507
538
538
515
504
513
530
498
484
526
550
516
487
492
511
513
495
497
522
504
498
477
482
494
494
517
534
530
531
504
481
477
494
507
505
514
539
531
509
522
536
538
517
488
481
485
503
533
543
555
547
524
518
493
501
487
481
495
504
483
529
578
575
546
498
484
493
509
516
504
506
508
530
521
522
553
542
543
542
529
524
514
524
533
538
515
499
527
542
543
571
565
550
534
512
506
526
552
559
553
536
515
497
483
453
435
495
557
547
513
516
522
544
550
507
481
475
458
446
472
544
638
720
797
868
896
927
948
900
802
728
674
599
470
373
322
320
315
301
297
308
330
365
413
446
449
470
482
486
472
472
452
453
497
497
479
481
489
500
508
505
465
462
514
538
499
466
462
493
523
503
524
550
515
487
494
502
500
529
540
527
522
534
537
546
531
493
483
511
552
579
587
561
549
556
530
517
504
498
508
537
586
584
538
530
556
565
581
609
603
587
573
570
602
598
566
570
559
552
549
568
600
620
618
606
611
639
638
600
578
558
551
578
611
614
583
550
541
546
536
516
504
493
490
526
541
540
516
486
467
470
519
541
518
523
520
472
431
451
475
447
429
449
469
447
422
410
416
397
404
430
453
488
501
516
522
485
435
389
394
442
464
476
480
464
447
437
452
468
474
480
485
462
459
459
457
459
452
461
467
456
443
446
455
468
506
513
506
502
509
532
525
513
524
501
458
456
473
479
493
481
457
484
508
489
507
510
491
511
509
497
484
471
434
418
465
498
502
505
498
482
477
495
500
499
513
523
514
532
518
519
518
525
532
514
490
473
480
494
505
521
518
523
548
522
484
470
460
451
438
458
499
525
514
504
548
551
523
498
498
500
461
463
494
500
514
529
543
561
555
516
506
530
519
503
485
515
534
537
510
503
531
543
552
526
515
506
475
456
436
475
488
506
537
559
559
518
492
491
521
494
455
465
504
534
557
558
555
556
542
525
502
502
503
488
483
481
498
494
497
499
531
543
537
507
504
501
489
532
529
516
534
521
527
523
505
525
551
535
503
500
509
500
497
535
541
508
501
526
550
558
559
544
528
529
541
540
544
544
522
529
535
548
557
534
519
511
514
528
532
506
482
501
503
497
499
502
510
512
511
512
516
497
467
465
477
494
490
499
539
603
702
774
789
808
842
877
880
834
777
692
598
514
434
388
359
376
367
340
360
386
399
398
414
397
413
430
438
445
473
490
496
496
482
477
467
454
435
450
492
504
492
513
482
468
454
478
519
516
501
508
492
482
476
463
466
502
524
518
518
579
594
530
511
539
569
562
490
470
479
497
519
532
540
547
560
557
552
566
562
537
518
506
523
562
592
599
588
569
561
539
506
519
546
571
618
663
641
568
553
580
586
565
525
539
608
639
627
613
606
581
559
564
574
579
582
568
562
586
588
568
530
489
479
488
486
487
480
490
513
498
496
492
468
461
476
494
487
485
488
467
438
416
400
399
420
460
463
446
427
431
423
424
452
469
459
443
424
460
490
486
493
492
468
438
427
413
427
453
460
465
477
474
487
476
418
434
472
492
513
513
508
503
492
478
487
509
492
500
520
518
497
487
478
479
475
455
439
472
491
488
493
515
533
532
534
513
499
483
483
482
480
486
491
508
526
520
499
489
486
484
474
475
481
474
486
505
504
500
492
495
477
469
484
481
528
525
492
490
482
480
479
505
531
510
489
515
532
543
541
520
508
482
449
447
515
572
579
540
514
507
503
481
469
486
496
507
503
525
546
521
483
473
493
493
517
533
554
522
506
506
505
490
479
491
509
516
552
550
548
515
461
465
481
504
518
520
526
492
498
488
457
482
525
523
525
542
547
553
541
517
517
530
509
509
508
479
442
447
485
494
504
513
520
535
544
534
515
504
494
497
474
498
517
540
579
598
579
566
550
506
467
485
513
516
522
559
563
541
545
545
529
532
513
507
525
526
526
518
472
459
495
489
477
513
533
516
507
502
491
490
485
497
526
528
530
541
573
617
676
753
815
854
876
882
823
731
639
575
538
488
437
405
388
362
355
362
366
371
414
455
460
454
457
446
437
444
442
449
451
460
441
447
484
466
494
502
490
470
452
428
439
474
476
475
443
432
459
485
518
543
549
539
521
520
518
521
522
519
501
478
484
501
528
554
565
557
553
558
519
466
457
452
459
494
537
575
596
597
592
599
582
553
553
544
542
571
601
611
591
588
599
592
574
557
563
608
618
614
605
595
563
572
605
631
644
608
543
531
568
603
619
585
554
575
579
556
523
523
540
564
546
529
529
526
512
487
471
443
450
451
452
482
496
470
454
455
443
423
420
439
454
456
445
415
425
474
498
489
480
491
487
460
410
407
412
418
435
451
470
460
437
438
491
484
468
505
520
497
478
450
457
457
442
430
462
486
494
491
492
493
459
437
455
456
468
476
485
482
496
502
494
478
485
499
528
532
524
497
492
480
488
490
481
505
526
514
508
481
470
456
481
495
489
507
490
467
482
489
505
534
541
546
524
512
503
482
487
509
531
502
493
486
493
504
495
485
490
492
498
498
492
494
517
537
569
530
484
483
504
535
567
558
477
462
481
481
458
472
513
562
549
505
491
506
556
567
532
473
459
506
532
520
491
462
466
494
513
509
504
506
519
506
506
494
514
511
525
544
527
514
520
512
492
493
514
533
521
500
470
479
516
545
553
545
530
517
509
521
504
486
459
454
471
490
511
527
517
490
489
497
532
558
548
527
511
525
511
495
524
565
565
529
510
489
484
505
544
545
520
525
546
546
518
507
507
531
534
542
567
563
533
500
479
469
478
504
511
517
537
549
532
504
494
495
505
499
470
448
448
463
478
506
556
650
739
791
806
845
887
881
844
784
704
614
547
470
418
392
382
388
382
390
400
403
409
413
402
392
410
422
417
439
437
458
461
450
432
433
439
438
466
487
477
458
454
478
480
449
418
458
510
503
483
480
480
496
499
497
489
500
462
400
435
482
512
519
529
517
522
508
505
533
574
573
560
558
539
509
488
499
531
548
557
555
563
565
527
507
544
579
582
576
509
483
504
538
564
548
549
577
601
603
592
585
577
576
606
642
627
588
556
557
596
594
566
558
591
607
578
553
530
480
467
493
496
500
503
519
513
504
506
505
491
510
504
495
476
462
478
514
500
459
431
424
435
457
460
442
432
417
415
398
349
368
428
478
495
507
507
483
442
415
409
454
462
475
493
481
453
449
464
478
486
482
487
475
471
464
455
449
444
450
468
472
471
478
497
500
501
493
478
483
489
518
536
546
561
523
480
440
446
470
485
491
500
497
495
483
487
493
494
502
522
494
454
462
486
487
478
490
516
531
528
517
521
507
501
509
511
492
491
495
502
484
468
489
512
501
476
468
468
479
491
495
515
521
501
472
471
499
539
541
505
504
533
541
533
512
503
528
532
510
496
477
500
547
526
495
479
479
476
487
514
532
492
493
471
461
485
516
569
609
610
566
554
541
494
489
498
474
471
504
522
508
519
497
458
476
495
524
539
536
516
508
518
521
505
463
441
468
528
555
569
593
577
523
508
512
529
541
537
514
503
488
459
462
502
511
506
493
521
530
535
532
506
496
521
533
521
504
509
538
539
495
452
462
515
544
532
509
501
512
523
525
515
503
511
532
531
516
493
508
498
495
525
547
541
492
457
457
476
509
537
540
541
530
509
519
537
574
583
560
552
547
544
545
542
528
516
514
521
514
535
540
527
504
478
449
458
478
483
505
516
521
523
505
486
486
499
538
580
630
700
773
828
850
870
842
808
768
726
647
562
474
418
408
413
404
389
390
408
407
424
442
451
473
472
430
407
435
484
501
486
449
417
421
436
444
446
446
445
476
508
524
527
515
512
528
525
518
512
520
523
507
478
456
454
472
482
470
477
482
485
489
535
557
541
538
544
549
596
560
518
506
521
523
505
526
542
549
578
591
563
559
558
530
515
512
537
561
566
548
543
546
566
569
564
591
603
606
608
612
590
593
601
614
621
639
620
589
597
601
583
562
574
595
616
584
564
549
532
523
534
541
535
519
502
496
502
500
501
514
510
498
474
468
448
446
467
467
473
457
461
495
494
438
427
456
476
477
474
470
466
447
423
431
448
454
451
462
514
550
544
503
464
448
455
461
476
513
536
520
464
436
459
484
488
486
496
515
515
515
504
490
458
472
482
458
469
505
513
492
502
498
495
496
500
493
501
503
498
517
543
519
503
474
435
445
458
456
461
470
487
502
490
492
510
491
492
510
495
469
492
510
505
504
491
502
506
493
505
499
471
485
495
487
492
509
500
472
464
467
462
477
478
479
470
495
556
571
531
494
471
480
490
491
500
502
467
461
462
468
476
477
496
520
542
547
509
493
518
507
490
487
495
496
497
500
523
527
527
543
554
510
498
505
513
518
524
515
498
467
460
502
541
537
528
538
530
510
502
503
506
513
518
521
528
535
518
503
498
514
532
517
523
540
526
477
452
461
462
470
520
545
542
516
501
518
540
493
483
515
528
537
533
517
527
540
542
508
475
479
517
524
542
560
525
491
480
451
443
466
482
503
527
539
548
570
566
535
493
439
432
475
524
532
524
519
519
524
528
520
496
505
522
531
532
527
520
515
507
492
488
517
541
530
493
493
502
509
533
551
559
541
502
500
501
513
557
560
508
504
503
497
516
531
539
544
527
526
553
562
550
544
518
519
527
515
492
476
459
443
444
452
476
494
491
476
471
458
469
525
579
614
701
796
842
868
883
871
826
778
708
642
563
486
418
366
341
335
346
390
402
389
405
425
429
416
431
449
442
427
393
400
426
453
445
440
404
382
401
457
508
506
488
486
484
484
503
486
454
465
475
462
448
427
451
493
495
502
503
513
521
497
473
465
456
480
509
515
502
530
558
542
515
517
509
490
492
510
525
557
561
554
557
555
569
581
566
547
547
544
527
509
539
579
551
520
533
549
566
551
541
526
552
573
614
612
602
610
602
574
592
584
554
541
547
563
579
593
601
599
565
515
509
509
519
526
507
533
545
527
491
451
443
461
469
470
459
455
438
418
450
452
457
461
447
436
421
405
413
435
445
428
413
420
436
427
428
426
408
397
417
450
451
451
456
465
480
479
474
457
444
472
465
409
411
425
454
464
442
426
469
470
476
507
513
500
498
494
505
513
497
476
450
452
463
484
503
508
504
514
509
489
480
486
518
529
525
495
485
470
468
460
444
482
514
517
510
498
469
475
488
504
506
487
463
453
470
497
516
506
478
469
497
504
504
526
520
513
488
468
473
497
514
489
465
494
519
524
507
498
478
470
486
495
494
470
468
503
530
525
508
496
484
504
534
526
530
551
531
497
463
466
484
492
537
545
529
509
483
469
515
547
516
488
463
450
505
536
537
505
481
501
515
547
566
568
544
505
503
502
497
481
473
524
534
493
481
492
527
535
541
548
540
494
465
481
493
516
547
534
485
469
505
537
544
537
520
502
512
539
549
524
525
524
536
536
532
509
488
472
475
494
549
568
561
568
564
549
520
495
493
496
498
539
554
490
467
501
538
557
562
526
507
502
466
481
529
520
509
503
485
488
503
527
553
554
558
578
584
553
523
511
516
528
519
531
533
551
535
519
525
522
527
516
517
529
531
515
524
569
600
588
553
537
524
532
583
574
547
536
521
529
533
527
537
546
554
526
503
482
479
481
464
442
480
515
534
517
493
491
508
538
553
600
692
768
850
905
925
905
886
838
768
673
562
493
423
373
365
373
355
343
349
371
396
426
454
426
410
417
421
432
426
429
427
442
435
443
481
460
433
470
496
473
477
499
491
469
425
409
460
496
517
526
510
493
502
518
534
512
493
502
525
539
521
493
492
524
561
544
528
519
510
509
522
534
527
524
532
555
553
552
535
518
521
556
569
551
533
519
534
551
578
578
579
581
586
611
634
642
609
592
597
568
541
552
576
598
595
598
607
604
584
564
577
595
586
542
499
530
555
570
557
555
560
561
519
522
512
493
501
519
528
540
531
487
467
485
481
452
463
456
420
414
425
428
443
450
462
467
457
470
465
437
423
434
429
429
445
450
457
460
442
451
481
465
447
455
467
482
475
458
458
473
503
510
504
500
495
499
484
460
454
458
460
474
491
504
527
517
499
462
464
495
498
487
486
482
503
533
550
546
534
525
506
499
475
478
492
497
518
518
492
474
507
508
501
497
521
524
509
486
451
464
483
534
545
481
463
480
489
488
500
495
480
478
492
506
517
506
508
514
526
512
498
498
493
462
469
514
483
453
481
493
495
489
503
522
525
517
541
566
535
489
479
455
457
508
540
547
523
501
512
482
483
500
495
487
499
535
543
536
538
521
500
479
499
527
480
462
490
490
487
497
521
542
548
528
490
489
482
515
521
482
487
491
496
523
521
523
520
529
545
536
525
519
521
522
509
485
482
475
491
492
519
541
524
518
515
487
485
497
484
486
489
484
488
488
490
517
567
577
562
521
487
495
524
544
522
500
481
468
473
500
498
485
497
512
529
524
525
538
533
524
514
502
509
512
501
515
499
484
495
510
517
499
522
513
472
484
509
515
530
544
537
532
532
546
536
522
506
505
525
554
550
543
545
564
527
539
581
576
551
529
518
540
551
564
552
535
531
539
499
507
532
539
527
521
497
504
519
502
493
514
530
538
519
508
496
464
445
438
467
512
562
624
708
783
861
926
954
959
919
847
739
626
527
432
402
408
385
336
319
325
375
409
425
424
407
391
409
457
467
451
460
455
427
430
447
451
461
466
454
474
468
466
477
472
479
475
473
485
479
467
483
516
523
528
517
491
487
522
523
499
499
506
486
489
504
530
560
563
521
480
485
490
497
522
519
522
505
509
545
559
570
581
580
584
580
580
546
539
574
598
589
554
569
581
593
591
615
618
600
556
544
537
524
526
568
584
582
605
642
640
640
609
585
586
606
611
585
574
580
557
559
548
516
497
499
531
558
536
492
477
484
501
509
498
469
461
454
431
435
447
439
452
463
448
443
471
467
445
441
447
447
453
470
463
452
440
443
446
437
446
441
402
413
427
453
478
456
439
419
392
418
469
527
573
594
560
503
457
455
472
472
461
448
440
486
519
527
475
460
480
481
461
476
533
554
539
522
497
487
483
482
467
467
484
509
503
496
515
523
475
462
480
487
488
496
507
504
496
518
512
481
492
509
507
481
469
466
503
509
512
521
563
557
490
460
453
430
461
490
493
511
513
533
559
533
509
462
435
449
483
497
522
536
508
523
538
547
521
503
470
486
520
505
524
563
539
513
519
528
492
459
474
477
498
527
510
484
473
491
490
503
512
504
512
505
507
502
510
520
532
527
527
525
536
523
499
491
502
513
544
566
545
506
473
478
489
511
515
508
490
492
511
515
509
502
504
497
492
486
521
524
509
523
533
513
475
468
487
513
529
529
543
511
474
500
523
528
510
515
549
566
532
498
502
519
506
476
485
517
526
523
522
525
496
466
475
504
524
504
495
537
561
543
531
520
489
491
525
532
528
533
517
522
531
540
531
527
529
541
519
519
524
524
548
554
518
543
569
567
567
580
580
544
542
526
509
517
539
527
515
533
509
487
496
490
491
478
475
503
494
492
511
497
481
477
479
474
472
504
567
621
697
765
838
896
915
920
940
945
872
747
629
494
363
320
315
281
233
273
318
341
364
398
422
435
451
437
419
428
443
438
441
481
483
490
474
464
494
506
472
460
478
475
495
494
490
506
507
512
503
500
498
508
496
481
477
462
490
503
495
497
520
552
559
548
534
514
536
530
506
543
559
540
536
527
528
506
496
523
539
558
566
542
535
545
567
567
557
566
568
568
566
586
586
567
540
552
601
607
612
604
607
627
634
601
563
584
581
544
549
551
545
541
539
547
562
603
605
594
619
621
578
538
522
533
534
523
521
518
517
541
538
529
506
469
440
426
439
428
414
411
421
458
491
488
470
442
454
456
456
430
421
415
406
425
439
428
416
424
448
465
473
482
473
467
451
449
450
460
441
439
450
452
459
480
494
495
481
466
470
460
439
456
516
502
462
431
436
419
443
488
488
475
471
463
468
471
441
442
486
515
494
484
496
498
519
517
493
490
496
482
455
431
443
452
465
477
447
423
425
450
464
483
486
473
478
470
480
493
511
480
480
498
490
489
518
522
487
462
460
482
493
479
478
496
513
498
474
495
510
510
514
514
535
542
505
466
468
486
503
523
513
515
496
461
461
489
515
522
536
525
509
508
514
512
507
495
473
460
467
522
560
541
528
563
581
552
521
514
500
489
494
496
502
503
497
505
497
493
496
494
535
543
517
512
516
518
525
509
498
515
535
529
529
528
518
515
517
528
530
520
527
533
528
525
518
493
488
495
512
538
535
520
525
515
524
571
571
527
496
494
538
573
584
573
552
513
479
455
448
482
509
509
525
534
544
531
525
531
548
554
533
513
501
525
570
598
611
611
602
577
549
537
524
546
587
575
564
566
534
496
502
513
477
479
474
470
468
457
487
522
535
518
517
522
553
560
575
613
659
721
792
833
871
886
879
858
799
706
611
533
432
348
304
277
269
295
323
341
360
383
386
403
427
450
468
480
484
471
448
437
447
443
457
466
459
437
445
453
484
491
477
485
476
463
472
464
455
457
467
491
505
507
499
484
507
526
510
502
496
491
488
501
513
510
500
515
508
520
527
544
547
522
514
527
546
574
590
596
603
597
581
564
547
546
528
530
560
589
611
608
590
575
564
576
567
574
571
565
601
620
628
622
605
627
642
613
582
567
575
582
567
548
540
535
561
571
557
579
600
573
553
531
509
516
526
515
525
541
529
502
519
527
502
474
461
456
443
440
444
443
442
429
425
424
430
471
465
402
395
418
436
468
486
478
440
422
433
455
474
480
472
466
483
491
490
465
470
485
489
485
482
463
454
473
466
462
463
474
473
489
498
495
514
506
501
512
514
509
512
527
530
533
511
481
472
509
516
504
475
459
465
468
474
441
459
495
498
498
514
519
526
534
524
532
514
491
467
461
475
510
506
487
501
511
509
488
487
488
483
476
476
493
500
522
552
551
518
491
464
417
420
448
448
473
499
502
514
533
536
514
500
495
502
491
483
496
504
547
567
567
531
478
455
471
489
502
500
508
526
488
486
504
517
544
552
542
508
499
487
473
465
447
452
482
555
588
559
528
518
511
507
514
515
502
513
540
511
504
524
523
515
496
503
526
543
552
558
536
517
511
475
457
485
545
548
519
493
490
489
495
508
523
515
505
507
519
515
516
549
565
537
491
484
509
521
518
511
509
526
521
512
490
491
537
572
560
526
512
525
538
535
531
530
539
567
594
575
541
520
519
501
492
486
473
482
490
494
496
506
516
492
474
509
519
526
536
547
520
491
491
540
617
664
722
798
856
895
926
912
864
795
691
602
509
417
380
363
345
343
373
383
396
414
394
396
435
441
429
439
474
497
505
498
460
417
416
436
462
463
467
486
472
470
449
449
474
474
447
430
465
515
525
497
493
499
488
499
516
527
517
506
527
521
510
508
523
510
470
465
484
493
502
524
546
571
546
535
500
490
532
540
548
569
588
582
556
545
544
543
543
553
611
635
580
531
516
531
541
536
538
561
576
598
581
584
588
574
576
565
570
594
615
574
551
547
522
516
512
534
551
581
593
580
570
557
542
518
506
480
463
463
462
474
493
488
460
432
420
450
475
478
464
447
446
453
439
439
429
380
361
395
458
491
492
489
483
472
467
463
484
469
415
390
397
443
448
449
464
451
438
439
429
419
475
516
492
478
493
510
500
487
487
475
461
455
471
474
495
532
545
525
483
450
464
492
499
519
505
474
466
482
509
521
511
507
515
522
497
474
478
517
525
488
451
444
463
494
489
473
468
496
524
531
541
526
508
502
478
460
489
537
535
513
511
522
515
523
525
528
534
533
518
507
493
477
489
508
504
505
494
497
510
514
536
511
466
460
505
549
574
553
534
518
507
531
547
523
510
519
512
504
505
499
496
506
500
504
491
489
503
526
532
522
514
527
550
529
510
502
510
504
500
520
543
568
564
532
526
536
490
432
408
453
488
509
527
552
564
542
537
533
531
517
519
513
519
514
507
519
528
516
515
508
505
524
532
525
524
519
511
513
508
491
466
479
477
464
496
538
551
559
557
523
505
503
502
523
543
545
548
550
540
567
563
551
539
533
533
509
483
493
512
493
483
487
486
483
494
519
528
501
477
479
473
453
458
477
505
565
597
633
727
851
934
965
932
881
809
732
665
597
518
441
375
333
347
366
370
418
435
423
413
405
418
438
469
480
464
463
464
444
414
428
445
456
443
425
437
452
462
449
443
468
494
488
492
502
488
488
492
489
471
478
501
494
479
490
499
510
509
486
476
485
503
500
516
498
505
526
507
478
490
557
583
554
530
525
545
555
536
533
516
528
541
532
530
548
558
580
555
556
564
568
571
574
570
550
541
568
569
568
576
595
589
574
586
591
595
588
566
563
558
548
559
564
572
552
549
569
560
575
548
520
515
518
518
509
495
500
493
501
496
466
432
420
459
469
432
426
417
426
449
458
457
448
443
470
478
464
471
464
430
414
419
396
397
425
474
503
491
462
451
462
463
430
431
425
460
497
474
441
444
467
465
472
492
500
502
487
473
475
468
453
484
512
547
571
553
507
479
452
436
454
488
506
494
480
487
462
456
490
501
507
498
495
507
505
484
470
474
483
467
444
473
513
517
520
536
542
529
511
505
482
454
432
468
503
516
506
503
506
490
493
473
473
501
518
526
517
488
488
491
494
509
500
506
509
517
535
538
519
500
466
476
471
483
493
511
516
491
444
444
475
497
512
505
485
490
515
534
531
517
514
520
539
503
481
487
493
506
536
534
516
502
504
511
537
557
554
519
476
497
523
527
522
491
483
482
498
501
526
548
539
502
477
460
464
489
515
505
515
519
515
494
469
466
481
494
512
551
576
561
547
537
527
531
528
502
486
477
487
474
480
488
482
475
496
530
559
557
558
556
533
523
512
527
547
530
495
478
512
518
515
515
512
502
502
503
528
543
531
529
567
547
535
554
538
503
503
496
515
525
533
544
541
509
478
484
492
514
513
502
510
516
525
514
487
465
472
502
495
497
534
590
653
699
758
829
902
913
887
842
764
682
655
625
545
480
416
362
342
362
378
367
379
417
437
438
442
424
459
482
457
446
476
495
477
460
467
454
458
463
453
455
479
499
489
496
502
506
495
471
467
479
487
492
493
473
461
476
544
551
520
511
488
482
526
532
531
517
500
478
484
536
562
542
537
549
557
569
562
550
540
535
514
527
573
603
587
558
548
554
536
546
567
564
567
570
567
588
587
565
557
582
601
616
615
586
575
560
564
582
566
540
560
604
632
633
613
586
575
562
559
564
556
543
535
546
558
543
480
434
428
440
469
490
501
512
509
491
471
466
470
464
428
412
445
428
408
409
427
448
417
423
444
452
448
441
459
464
443
428
424
437
459
463
487
480
480
488
529
499
432
428
431
439
452
473
497
499
500
500
478
457
481
486
464
459
486
518
502
503
505
514
521
501
475
454
464
500
496
494
500
521
526
500
491
487
485
473
482
483
467
476
495
505
519
512
506
507
523
529
516
512
476
469
482
507
518
525
512
529
527
498
481
474
498
522
526
509
489
507
529
496
478
473
469
500
523
532
499
468
496
515
490
474
469
471
479
499
518
513
503
499
510
550
565
550
513
501
518
516
500
489
475
519
505
472
481
502
514
516
502
496
497
511
503
499
491
469
471
490
504
529
543
546
527
509
526
542
529
500
508
507
491
486
481
486
488
495
495
477
497
533
537
520
519
519
521
499
506
521
532
540
550
540
536
530
519
515
485
461
455
459
464
473
499
507
514
547
529
514
525
549
556
506
474
501
528
519
520
556
568
546
524
507
521
511
484
477
470
481
494
509
502
509
533
528
505
489
496
499
487
494
497
515
524
505
490
488
505
522
517
526
514
476
520
543
493
502
543
565
545
544
548
542
531
552
546
510
495
506
538
544
552
538
543
542
543
541
522
524
542
549
534
500
495
513
527
537
494
492
491
488
489
518
531
522
503
519
527
508
480
478
496
536
566
614
690
771
846
902
908
884
843
774
696
600
515
434
405
395
394
366
338
343
357
356
385
429
434
413
418
442
462
464
463
458
458
488
496
477
466
467
460
446
442
454
468
505
551
535
500
485
464
477
496
505
515
521
512
515
511
489
488
504
488
465
474
499
521
530
501
512
492
490
487
508
532
534
513
510
543
547
565
572
560
540
529
541
563
595
622
601
580
570
563
590
602
577
567
546
519
505
549
567
582
579
586
591
603
602
557
528
553
587
618
621
577
566
560
575
599
600
604
592
585
562
541
555
550
553
535
516
520
524
487
467
493
493
487
478
472
485
447
427
442
410
415
430
430
438
431
424
413
419
468
474
471
496
492
474
433
406
412
444
463
473
475
463
463
474
490
480
432
402
413
446
450
432
425
437
472
496
543
553
526
514
487
456
445
457
479
484
489
527
546
544
511
459
452
462
480
492
511
521
485
487
494
507
503
510
520
517
505
472
472
483
479
512
532
510
510
541
538
500
502
488
462
438
426
435
450
477
504
544
531
510
505
506
510
497
494
468
445
474
495
499
500
503
504
495
495
510
542
539
520
514
508
479
438
451
459
450
466
484
495
543
544
539
564
571
525
469
460
482
511
533
491
460
457
484
506
512
544
560
577
556
520
518
486
486
515
519
495
470
453
455
470
490
505
500
482
495
514
539
545
540
534
524
532
546
513
489
468
474
471
490
507
546
529
492
499
509
506
500
504
519
519
488
472
471
491
492
494
526
534
515
527
536
544
512
496
509
496
467
473
487
507
515
520
531
512
496
522
524
506
510
522
499
464
479
494
493
515
539
527
519
503
500
506
507
498
464
451
478
527
561
589
560
532
522
515
492
485
499
501
513
514
505
518
542
537
531
520
499
488
514
527
527
544
548
564
564
567
562
551
521
509
480
477
515
500
479
487
492
487
521
518
476
464
480
491
491
515
532
541
524
492
489
489
485
514
581
636
707
795
855
894
909
894
853
793
726
635
521
429
355
326
318
313
351
376
379
408
431
431
443
420
412
433
463
446
459
496
498
460
428
449
452
457
475
468
460
482
492
470
