875
877
877
875
873
872
872
872
871
871
505
508
511
513
512
512
510
511
513
515
518
520
521
519
517
517
519
522
524
524
523
522
523
523
525
528
532
535
536
534
533
534
537
541
544
546
548
548
548
548
549
552
556
557
555
551
548
549
551
554
556
556
555
553
551
549
549
552
555
556
554
550
547
547
548
551
554
557
557
554
550
549
551
555
559
561
561
557
551
547
547
551
556
559
557
549
542
538
538
541
546
549
546
538
528
523
523
526
531
531
526
515
504
496
494
498
504
506
501
491
480
472
471
475
481
487
484
474
460
452
454
462
473
479
478
469
457
450
454
465
479
488
487
478
469
465
469
482
497
508
511
503
495
493
500
517
536
550
552
545
534
528
533
549
570
586
590
582
572
567
575
595
618
636
641
633
619
612
619
642
669
690
694
679
655
640
645
674
713
744
749
631
352
183
97
64
279
570
624
369
189
99
53
29
73
294
324
163
84
44
23
13
8
163
285
165
83
43
23
12
7
4
3
2
1
1
1
1
1
1
1
1
1
1
1
1
1
1
1
1
1
1
1
1
1
1
1
1
1
1
1
1
1
1
1
1
1
1
1
1
1
1
1
1
1
1
1
1
1
1
1
1
1
1
1
1
1
1
1
1
1
1
1
1
1
1
1
1
1
1
1
1
1
1
1
1
1
1
1
1
1
1
1
1
1
1
0
1
1
1
0
1
1
17
117
279
456
623
763
902
1023
1023
1023
1023
1023
1023
1023
1023
1023
1023
1023
1023
1023
1023
1023
1023
1023
1023
1023
1023
1023
1023
1023
1023
1023
1023
1023
1023
1023
1023
1023
1023
1023
1023
1023
1023
1023
1023
1023
1023
1023
1023
1023
1023
1023
1023
1023
1023
1023
1023
1023
1023
1023
1023
1023
1023
1023
1023
1023
1023
1023
1023
1023
1023
1023
1023
1023
1023
1023
1023
1023
1023
1023
1023
1023
1023
1023
1023
1023
1023
1023
1023
1023
1023
1023
1023
1023
1023
1023
1023
1023
1023
1023
1023
1023
1023
1023
1023
1023
1023
1023
1023
1023
1023
1023
1023
1023
1023
1023
1023
1023
1023
1023
1023
1023
1023
1023
1023
1023
1023
1023
1023
1023
1023
1023
1023
1023
1023
1023
1023
1023
1023
1023
1023
1023
1023
1023
1023
1023
1023
1023
1023
1023
1023
1023
1023
1023
1023
1023
1023
1023
1023
1023
1023
1023
1023
1023
1023
1023
1023
1023
1023
1023
1023
1023
1023
1023
1023
1023
1023
1023
1023
1023
1023
1023
1023
1023
1023
1023
1023
1023
1023
1023
1023
1023
1023
1023
1023
1023
1023
1023
1023
1023
1023
1023
1023
1023
1023
1023
1023
1023
1023
1023
1023
1023
1023
1023
1023
1023
1023
1023
1023
1023
1023
1023
1023
1023
1023
1023
1023
1023
1023
1023
1023
1023
1023
1023
1023
1023
1023
1023
1023
1023
1023
1023
1023
1023
1023
1023
1023
1023
1023
1023
1023
1023
1023
1023
1023
1023
1023
1023
1023
1023
1023
1023
1023
1023
1023
1023
1023
1023
1023
1023
1023
1023
1023
1023
1023
1023
1023
1023
1023
1023
1023
1023
1023
1023
1023
1023
1023
1023
1023
1023
1023
1023
1023
1023
1023
1023
1023
1023
1023
1023
1023
1023
1023
1023
1023
1023
1023
1023
1023
1023
1023
1023
1023
1023
1023
1023
1023
1023
1023
1023
1023
1023
1023
1014
1003
989
987
980
956
908
900
925
937
924
910
911
925
904
863
861
857
828
818
811
844
887
901
912
901
874
809
749
737
779
810
810
796
803
826
809
762
737
741
728
698
678
651
647
689
725
711
705
703
674
622
598
596
615
657
661
593
529
531
576
609
618
608
583
564
527
540
552
525
492
467
426
423
445
461
449
421
410
381
362
376
386
385
355
356
348
356
370
377
386
394
402
366
348
359
327
292
309
343
363
373
355
316
300
286
272
286
302
324
324
353
370
355
345
337
312
294
278
278
280
305
307
260
243
264
289
318
311
266
265
293
317
296
269
252
214
193
208
250
273
259
236
243
257
269
289
307
276
192
166
205
233
211
199
195
212
236
239
219
175
143
146
160
174
164
147
98
82
102
118
123
106
92
112
133
106
79
120
152
169
230
310
357
408
458
473
452
410
326
257
155
80
43
24
14
8
5
3
2
2
1
1
1
3
10
6
3
2
1
1
1
1
1
1
1
1
1
1
1
1
1
1
1
1
1
1
1
1
14
14
7
4
2
1
1
1
1
1
1
1
7
4
2
2
10
13
7
8
11
9
9
35
33
21
12
16
8
4
3
2
1
1
1
1
1
1
1
1
1
2
42
98
91
47
24
12
15
19
10
5
3
23
61
86
47
25
13
7
4
3
2
4
5
3
2
3
4
9
17
8
5
2
2
1
1
1
1
1
1
1
0
1
1
1
1
1
1
1
1
1
1
1
1
0
1
1
1
1
1
1
1
1
1
1
1
1
1
1
1
1
1
1
1
0
0
0
0
0
1
1
0
1
1
1
0
1
1
1
1
1
1
1
1
1
1
1
1
1
1
1
1
1
1
1
1
1
1
1
1
1
1
1
0
1
0
1
1
1
1
1
1
1
1
1
1
1
1
1
1
1
1
1
1
1
0
1
1
1
1
1
1
1
1
1
1
1
1
1
1
1
1
1
1
1
1
1
1
1
1
1
0
0
1
1
1
1
1
1
1
1
1
1
1
1
1
1
1
1
1
1
1
0
1
1
1
1
1
1
1
1
1
1
1
0
1
1
1
1
0
1
0
1
1
0
1
1
1
1
1
1
1
1
1
1
1
1
1
1
1
1
1
1
1
1
1
4
8
4
2
1
1
1
1
1
1
1
1
1
1
1
1
1
1
1
1
1
1
1
1
1
7
14
7
4
2
2
3
2
2
1
1
1
1
1
1
1
1
1
7
11
6
3
2
1
1
1
1
26
20
10
5
3
2
1
1
1
1
1
1
1
1
1
11
6
10
21
13
12
7
4
9
5
3
23
42
27
14
7
4
2
1
1
4
6
3
2
1
1
1
1
2
6
10
5
3
2
1
1
1
1
1
2
1
1
11
35
63
110
219
295
347
345
259
211
199
169
118
61
32
17
9
5
3
2
1
1
1
1
1
1
1
1
1
1
1
1
1
1
1
1
1
16
44
45
22
11
6
3
3
19
38
22
11
6
3
2
1
1
7
24
25
13
7
4
2
5
43
58
50
31
22
11
6
12
26
26
13
7
4
7
25
56
75
90
105
94
52
26
17
24
38
90
106
85
78
119
134
104
58
54
96
86
57
77
119
125
105
150
182
161
157
171
158
140
131
118
109
85
60
63
73
76
78
92
110
101
65
40
21
13
28
36
54
53
41
27
71
107
75
57
30
16
8
5
3
4
2
1
1
1
1
1
8
5
3
22
35
18
15
36
41
22
11
6
4
2
2
1
1
6
3
11
49
66
61
64
77
48
24
26
49
80
110
110
94
105
107
96
76
50
42
45
93
144
163
134
109
127
121
108
96
94
87
57
29
35
72
123
156
163
180
166
117
87
101
112
130
130
137
136
119
111
155
210
200
166
134
119
98
101
128
160
165
147
151
161
131
144
176
205
189
161
153
163
161
147
127
109
131
177
149
102
90
111
145
153
166
210
223
216
191
173
175
181
178
180
192
197
164
147
157
168
174
144
114
129
142
170
187
236
298
297
264
238
212
221
191
148
120
125
150
154
177
208
215
170
156
187
217
243
253
228
185
196
216
246
266
259
223
218
230
207
171
151
183
224
221
168
148
139
152
173
163
163
177
197
234
256
245
228
201
203
234
244
236
242
244
212
207
198
187
197
212
222
229
215
190
162
149
155
209
243
231
223
255
264
264
275
270
283
285
223
169
197
242
231
200
205
234
236
240
231
249
250
254
243
247
240
203
200
258
277
262
277
293
263
240
235
216
204
247
260
234
225
223
246
262
258
236
243
274
285
290
283
265
246
211
205
227
256
276
268
247
233
223
223
226
217
194
197
218
228
236
247
276
328
367
411
461
527
567
593
606
585
543
484
409
304
207
158
146
105
59
31
33
76
92
122
193
224
230
224
218
194
181
202
246
262
239
199
183
178
211
256
266
225
220
223
216
213
221
217
225
220
216
255
277
283
266
270
282
255
199
192
233
241
236
264
268
286
305
294
292
296
295
321
327
309
283
285
304
334
353
338
297
288
310
318
286
247
271
335
392
382
355
321
273
278
304
315
315
323
339
353
364
349
346
351
356
373
364
336
315
325
338
338
340
316
306
291
275
248
230
270
299
290
272
244
222
228
245
235
228
240
228
211
195
167
173
191
200
195
185
177
181
205
199
195
174
158
159
148
133
124
153
200
229
197
171
161
128
121
125
134
160
213
218
165
180
211
228
210
190
214
245
243
209
169
170
182
198
238
265
252
211
211
238
281
288
279
270
268
232
205
191
208
251
242
211
219
238
267
297
288
263
269
274
248
235
227
208
204
260
295
285
278
321
333
310
317
314
288
237
230
222
245
267
268
264
235
204
242
281
279
248
263
306
307
309
319
306
288
261
241
256
308
338
305
275
290
292
315
322
345
348
312
313
319
294
299
305
328
329
288
276
295
269
275
316
359
381
373
331
307
300
294
321
349
355
363
367
373
375
410
431
416
397
387
365
357
365
408
425
402
391
388
371
371
374
380
376
380
376
372
410
397
352
368
412
425
410
362
332
309
275
322
388
407
414
428
390
349
381
379
359
348
308
313
314
328
375
405
421
414
383
341
300
290
335
397
415
392
400
415
385
368
377
364
355
350
356
340
308
293
318
329
347
334
295
306
337
368
395
398
360
331
367
390
380
369
378
383
390
360
362
379
358
370
381
363
335
313
339
342
358
355
336
352
376
382
380
376
353
350
378
403
390
369
371
341
340
358
374
375
356
356
386
408
403
400
380
350
366
407
430
432
436
407
369
348
329
311
310
327
352
365
378
394
407
414
395
351
320
313
297
321
383
460
543
618
697
759
759
750
726
656
585
503
395
332
280
238
217
239
292
309
306
341
351
331
306
271
283
319
324
336
368
370
367
312
263
294
331
324
285
319
388
399
386
401
386
338
347
377
380
388
396
373
356
349
384
435
439
417
360
334
335
351
373
373
378
413
420
401
386
398
400
426
431
429
391
343
329
387
439
446
453
451
447
426
409
369
399
462
484
513
511
502
477
464
437
438
444
433
431
441
445
465
476
448
426
441
478
506
508
499
461
470
510
507
459
463
465
475
491
490
466
446
439
430
406
392
368
358
374
359
345
339
333
356
375
376
390
409
402
366
350
355
339
332
332
317
326
353
372
364
372
364
360
334
303
305
317
322
322
339
339
348
394
412
397
379
380
366
341
337
339
316
321
349
384
394
402
416
382
373
347
330
351
391
428
439
440
410
408
413
405
420
432
406
345
379
412
427
401
377
389
403
362
337
364
387
412
438
434
398
384
418
454
458
433
435
442
406
393
419
411
398
404
427
430
400
341
346
375
416
447
446
417
397
398
419
433
437
440
463
472
455
433
420
423
433
454
463
453
429
417
431
435
414
390
414
443
460
457
452
453
437
415
403
419
466
460
423
403
366
374
415
436
435
446
466
467
472
463
457
446
470
492
477
424
384
387
418
441
428
428
430
415
410
446
461
466
450
440
437
436
469
494
489
451
426
429
450
472
469
447
415
393
433
452
461
471
477
499
499
470
417
415
400
408
423
405
423
467
498
525
532
487
484
489
460
424
429
438
436
447
480
480
456
455
438
437
443
440
430
417
395
406
423
444
468
478
465
431
413
442
486
475
448
438
474
524
533
511
468
444
424
433
447
454
448
413
408
427
435
452
446
437
458
456
427
446
471
463
449
455
470
483
460
436
411
428
503
514
479
447
449
441
465
473
465
468
476
449
455
425
429
453
447
453
459
464
478
476
515
533
500
452
450
497
503
484
461
454
436
409
426
384
361
404
432
391
406
462
487
485
455
423
409
393
404
443
495
549
588
623
685
747
788
817
818
754
651
559
464
402
339
310
307
312
331
326
316
321
343
362
386
387
384
381
400
410
394
388
399
410
392
359
356
390
397
390
402
429
428
385
361
379
399
406
396
437
480
488
486
472
454
445
434
451
471
470
438
444
485
484
472
425
378
382
426
487
510
535
509
482
486
507
502
478
451
450
475
510
531
524
505
519
523
525
546
560
563
538
542
566
547
535
509
486
492
518
561
570
563
550
525
534
558
595
605
607
565
515
498
474
456
466
502
536
516
510
524
551
563
528
492
476
457
439
450
458
446
462
462
427
396
408
443
449
418
408
358
331
328
337
381
423
418
373
343
360
394
391
360
332
346
388
391
365
386
404
401
400
376
382
396
400
421
407
404
428
416
397
372
377
381
353
375
408
423
420
414
436
480
494
473
456
447
458
406
338
330
405
461
491
509
479
472
483
456
422
400
426
456
494
471
456
465
479
472
447
437
441
456
461
494
504
502
483
440
429
432
402
392
427
447
444
448
454
497
530
533
527
517
479
446
428
403
372
378
430
491
539
537
517
488
481
536
531
496
448
387
397
499
538
546
536
520
524
511
478
443
437
487
521
518
492
496
522
513
505
476
414
416
449
487
528
561
574
557
515
515
529
522
507
492
480
472
493
500
504
528
535
490
456
443
436
448
448
440
457
494
534
559
575
549
517
469
482
491
522
534
531
495
468
477
500
516
497
477
447
445
494
523
505
478
474
491
498
497
493
460
439
428
408
439
503
548
566
573
554
515
476
444
403
391
431
454
485
520
512
523
540
528
506
512
487
462
467
475
469
471
467
474
516
536
511
480
483
452
436
456
461
462
473
516
539
502
463
475
496
522
524
490
452
454
491
523
563
567
502
466
457
465
495
517
549
550
531
497
487
504
531
531
526
537
529
527
510
498
505
535
542
513
488
485
504
525
510
505
482
455
454
494
505
466
453
464
489
494
485
509
530
510
502
542
627
701
743
785
842
894
907
862
779
666
567
500
415
348
317
317
328
356
386
410
424
399
368
399
422
436
452
447
435
431
447
473
479
470
459
464
467
469
451
445
464
500
504
467
451
475
480
474
479
492
500
510
484
468
480
479
471
460
449
486
536
525
497
465
450
495
551
579
553
520
501
500
504
515
516
519
521
510
528
563
559
539
554
536
521
523
544
559
517
485
481
495
516
555
556
568
597
597
566
567
601
610
585
556
540
527
532
538
536
536
534
548
529
506
515
526
516
506
487
486
475
452
433
417
407
412
439
456
451
445
441
382
369
400
409
377
372
363
348
364
370
375
386
396
378
377
373
365
368
371
374
378
396
383
369
398
396
381
411
444
437
394
367
392
408
406
411
399
427
461
467
456
442
450
438
400
400
449
509
513
503
488
457
428
417
436
457
449
436
475
522
537
529
482
469
468
446
445
450
441
450
491
523
540
532
484
449
471
478
445
457
496
488
482
490
477
480
509
515
471
464
484
512
523
486
432
425
451
501
506
469
446
473
498
527
534
504
489
483
481
497
505
518
515
529
525
504
499
488
476
484
500
516
482
462
462
475
478
500
543
532
485
493
528
545
524
508
512
536
552
558
590
597
569
537
493
458
469
477
514
526
524
512
533
566
561
552
558
561
565
573
556
582
630
638
630
617
568
538
558
589
591
581
544
541
538
559
581
576
547
520
523
524
517
524
569
600
609
585
593
616
606
584
538
525
536
541
564
582
559
513
542
574
601
593
571
522
498
517
539
553
566
555
516
495
505
515
507
496
503
529
554
567
540
521
516
527
540
528
502
479
478
502
511
531
549
565
543
535
533
519
489
467
502
532
546
566
559
523
534
540
520
541
550
540
506
516
544
568
552
527
536
506
474
493
515
534
526
499
448
451
458
479
492
498
531
534
496
473
471
478
486
463
464
521
595
662
735
803
864
910
928
892
859
801
698
563
475
432
379
339
321
335
347
372
403
398
445
468
442
436
470
493
508
466
432
443
448
460
483
487
440
408
412
460
492
458
456
481
518
513
506
502
492
480
460
479
508
525
508
492
466
421
408
471
497
503
514
535
527
508
515
523
530
523
516
538
522
502
514
547
551
540
516
518
523
530
541
536
530
526
509
524
570
599
608
550
519
536
546
580
605
575
548
567
574
589
589
595
624
626
601
611
590
570
577
558
563
560
569
555
545
551
554
536
547
562
570
540
519
514
497
478
485
496
478
469
499
514
492
437
392
374
412
421
377
399
446
430
430
457
448
436
416
422
442
464
455
426
401
376
365
371
397
416
466
472
446
423
436
453
438
402
412
441
447
424
433
481
484
485
506
509
509
502
492
494
492
488
481
447
451
466
437
422
418
435
483
497
488
488
502
493
467
484
512
488
442
470
487
465
445
455
464
449
485
515
532
500
470
476
480
494
501
497
483
460
454
479
492
500
510
498
478
481
503
510
506
499
472
495
516
505
494
475
464
486
509
514
515
524
517
496
508
497
456
443
465
517
559
560
528
518
536
531
525
507
507
502
514
498
507
492
502
517
510
504
519
495
479
520
534
524
530
532
526
523
528
503
483
493
527
542
541
530
548
576
595
565
535
523
485
470
485
513
505
491
493
511
535
551
530
491
508
490
452
493
536
534
531
532
560
583
570
543
544
535
524
514
494
467
475
490
513
538
540
528
530
573
573
535
504
485
487
505
521
525
516
510
496
496
516
495
508
549
519
505
506
523
563
578
555
525
498
485
493
526
510
540
553
553
534
517
530
553
552
526
516
513
528
563
591
548
509
516
542
550
544
529
503
504
526
525
526
524
533
555
546
526
513
516
542
556
514
471
500
564
567
521
485
493
524
538
558
501
474
483
498
471
451
459
485
511
534
528
553
632
765
895
967
943
911
905
875
810
712
591
493
420
374
380
373
380
370
368
401
440
433
422
417
428
436
426
412
462
500
500
513
524
512
526
513
485
472
444
443
444
435
435
450
459
484
496
512
521
488
450
474
508
519
519
507
500
506
530
544
556
528
474
471
463
474
504
538
522
496
483
473
511
543
558
556
543
546
577
571
531
520
514
490
543
583
595
598
596
587
566
548
544
558
585
588
600
604
593
605
613
614
595
568
561
561
539
499
518
598
664
654
619
570
530
503
535
573
547
557
565
548
524
513
477
463
502
523
519
508
497
495
473
469
467
443
446
448
438
444
444
454
460
455
427
416
423
446
438
398
394
415
420
421
416
400
374
392
440
445
419
430
449
460
468
450
418
432
453
485
503
500
480
477
472
486
515
502
466
429
437
460
444
439
455
479
475
450
447
445
443
497
522
517
489
509
537
550
562
538
489
462
448
473
520
528
492
484
492
493
490
487
488
492
491
503
483
475
514
517
483
451
438
451
478
519
530
496
481
486
502
504
502
502
484
502
522
537
516
491
482
459
451
445
440
460
494
535
582
609
572
504
475
467
482
475
507
528
533
552
559
550
527
480
419
425
446
465
479
448
452
484
500
500
512
537
563
573
585
568
523
508
510
519
473
405
405
427
447
461
456
491
506
497
466
439
494
537
528
516
494
483
546
577
542
517
528
548
521
479
425
389
448
521
515
495
493
485
482
488
474
509
554
518
500
491
489
489
496
470
468
435
424
446
449
381
319
311
397
508
553
501
393
281
276
332
417
467
474
493
537
567
659
717
724
708
729
710
678
624
574
504
495
554
624
759
961
1023
1023
1023
1023
1023
1023
1023
1023
1023
1023
1023
1023
1023
1023
1023
1023
1023
1023
1023
1023
1023
1023
1023
1023
1023
1023
1023
1023
1023
1023
1023
1023
1023
1023
1023
1023
1023
1023
1023
1023
1023
1023
1023
1023
1023
1023
1023
1023
1023
1023
1023
1023
1023
1023
1023
1023
1023
1023
1023
1023
1023
1023
1023
1023
1023
1023
1023
1023
1023
1023
1023
1023
1023
1023
1023
1023
1023
1023
1023
1023
1023
1023
1023
1023
1023
1023
1023
1023
1023
1023
1023
1023
1023
1023
1023
1023
1023
715
377
200
108
59
33
19
11
7
5
3
2
2
2
1
1
1
1
1
1
1
1
1
1
1
1
1
1
1
1
1
1
1
1
1
1
1
1
1
1
1
1
1
1
1
1
1
1
1
1
1
1
1
1
1
1
1
1
0
1
1
1
0
1
1
1
1
1
1
1
1
1
1
1
1
1
1
1
1
1
1
1
1
1
1
1
1
1
1
1
1
1
1
0
1
1
1
1
1
1
1
1
1
1
1
1
1
1
1
1
1
1
1
1
1
0
1
1
1
0
1
1
1
1
1
1
1
1
1
1
0
1
1
1
1
0
1
1
0
1
1
1
1
1
1
1
1
1
1
1
1
1
1
1
1
1
1
0
1
1
1
1
1
1
0
1
1
1
1
1
1
1
1
1
1
1
0
1
1
1
1
1
1
1
1
1
1
1
1
1
1
1
1
0
1
1
1
1
1
1
1
1
1
1
1
1
1
1
1
1
1
0
1
1
1
0
1
1
1
0
0
1
1
1
1
1
1
1
1
1
1
1
0
1
0
1
0
1
1
0
1
1
1
1
1
0
1
1
1
1
1
1
1
1
1
0
1
1
1
1
1
1
0
