710
717
718
711
701
695
694
698
705
712
714
10
6
4
3
2
2
1
1
1
1
1
1
1
1
1
1
1
1
1
1
1
1
1
1
1
1
1
1
1
1
1
1
1
1
1
1
1
1
1
1
1
1
1
1
1
1
1
44
797
1023
1023
1023
1023
1023
1023
1023
1023
1023
1023
1023
1023
1023
1023
1023
1023
1023
1023
1023
1023
1023
1023
1023
1023
1023
1023
1023
1023
1023
1023
1023
1023
1023
1023
1023
1023
1023
1023
1023
1023
1023
1023
1023
1023
1023
1023
1023
1023
1023
1023
1023
1023
1023
1023
1023
1023
1023
1023
1023
1023
1023
1023
1023
1023
1023
1023
1023
1023
1023
1023
1023
1023
1023
1023
1023
1023
1023
1023
1023
1023
1023
1023
1023
1023
1023
1023
1023
1023
1023
1023
1023
1023
1023
1023
1023
1023
1023
1023
1023
1023
1023
1023
1023
1023
1023
1023
1023
1023
1023
1023
1023
1023
1023
1023
1023
1023
1023
1023
1023
1023
970
886
793
688
586
494
397
288
167
90
50
28
16
10
6
4
3
2
2
2
1
1
1
1
1
1
1
1
1
1
1
1
1
1
1
1
1
1
1
1
1
1
1
1
1
1
1
1
1
1
1
1
1
1
1
1
1
1
1
0
1
1
1
1
1
1
1
1
1
1
1
1
1
1
1
0
1
1
1
1
1
1
1
0
1
1
1
1
1
0
1
1
0
0
0
1
1
1
1
1
1
1
1
1
1
1
1
0
1
0
1
1
1
0
1
1
1
1
1
1
1
1
1
1
1
1
0
1
0
1
1
1
1
1
1
1
1
0
1
1
1
1
1
1
1
1
1
0
1
0
1
0
0
1
1
48
262
420
424
308
164
85
45
24
13
58
202
397
616
838
1023
1023
1023
1023
1023
1023
1023
1023
1023
1023
1023
1023
1023
1023
1023
1023
1023
1023
1023
1023
1023
1023
1023
1023
1023
1023
1023
1023
1023
1023
1023
1023
1023
1023
1023
1023
1023
890
671
456
266
143
78
43
24
14
8
5
4
2
2
2
1
1
1
1
37
141
248
345
428
496
544
584
620
662
723
809
924
1023
1023
1023
1023
1023
1023
1023
1023
1023
1023
1023
1023
1023
1023
1023
1023
1023
1023
1023
1023
1023
898
619
341
181
98
54
30
17
10
6
4
3
2
2
1
1
41
139
243
343
435
510
557
564
536
502
488
496
509
502
458
369
244
128
67
36
20
11
6
4
3
2
2
1
1
1
1
1
1
1
1
1
1
1
1
1
1
1
1
1
1
1
1
1
1
1
1
1
1
1
1
1
1
1
1
1
1
0
1
1
1
1
353
991
1023
1023
1023
1023
1023
1023
1023
1023
1023
1023
1023
1023
1023
1023
1023
1023
1023
1023
1023
1023
1023
1023
1023
1023
1023
1023
1023
1023
1023
1023
1023
1023
1023
1023
1023
1023
1023
1023
1023
1023
1023
1023
1023
1023
1023
1023
1023
1023
1023
1023
1023
1023
1023
1023
1023
1023
1023
1023
1023
1023
1023
1023
1023
1023
1023
1023
1023
1023
1023
1023
1023
1023
1023
1023
1023
1023
1023
1023
1023
1023
1023
1023
1023
1023
1023
1023
1023
1023
1023
1023
1023
1023
1023
1023
1023
1023
1023
1023
645
338
181
98
54
30
17
10
7
4
3
2
2
2
1
1
1
1
1
1
1
1
1
1
1
1
1
1
1
1
1
1
1
1
1
1
1
1
1
1
1
1
1
1
1
1
1
1
1
1
1
101
762
1023
1023
1023
1023
1023
1023
1023
1023
1023
1023
1023
1023
1023
1023
1023
1023
1023
1023
1023
1023
1023
1023
1023
1023
1023
540
284
153
83
46
26
15
9
5
4
3
2
2
2
1
1
1
1
1
1
1
1
1
1
1
1
1
1
1
1
1
1
1
1
1
1
1
1
1
1
1
1
1
1
1
1
1
1
1
1
1
1
0
1
1
1
0
0
1
1
1
1
1
1
0
1
1
1
1
0
1
1
1
1
1
1
1
1
1
1
1
0
1
1
1
1
1
1
1
0
1
1
1
1
1
1
1
1
1
0
1
1
1
1
1
1
1
1
1
1
1
1
1
1
1
1
1
1
1
1
1
1
1
1
1
1
0
1
1
0
1
1
1
1
0
1
1
1
1
1
1
1
1
1
1
0
0
1
1
1
1
1
0
1
1
1
1
1
1
1
1
0
1
1
0
1
1
0
1
1
1
1
1
1
1
1
1
1
1
1
1
1
1
1
1
0
1
1
1
1
0
1
1
1
1
1
1
1
1
1
1
1
1
1
1
1
0
1
0
1
1
1
1
1
1
1
0
0
1
1
1
1
1
1
1
1
0
1
1
1
1
1
0
0
1
1
0
1
1
0
1
1
1
1
1
1
1
1
1
1
1
0
1
1
1
75
209
319
364
339
274
234
215
167
101
52
27
14
8
5
3
2
1
1
1
1
1
1
1
1
1
1
14
32
34
24
12
7
5
3
2
1
1
1
2
36
96
116
103
93
67
33
17
16
41
90
118
119
105
91
84
111
117
111
127
147
131
135
136
171
211
230
210
172
147
138
147
174
207
224
224
203
188
209
228
245
247
292
369
393
338
250
223
242
262
278
292
299
290
295
329
360
362
362
360
353
348
381
392
354
358
399
401
377
346
309
295
299
324
350
338
312
294
281
267
275
320
351
340
300
269
279
339
399
387
319
255
229
233
241
247
286
299
281
257
239
194
168
184
214
249
283
273
254
243
209
197
215
254
272
264
224
220
225
239
274
303
307
317
304
275
257
263
305
363
365
324
288
243
242
274
319
361
369
329
303
317
321
327
357
352
368
390
382
345
290
275
302
342
383
402
406
400
399
402
328
282
299
330
351
361
371
387
403
415
435
429
429
413
414
423
423
422
424
424
419
414
403
419
418
403
423
461
446
430
408
394
410
465
501
500
480
451
425
443
517
586
605
573
538
524
518
521
536
515
522
507
473
456
472
506
537
552
524
511
505
502
498
489
496
539
575
583
601
603
565
533
500
502
541
531
509
497
485
503
565
616
621
596
557
536
536
549
569
565
575
569
542
546
576
606
632
610
617
635
645
598
565
559
566
600
633
602
584
560
534
548
575
598
600
605
607
614
623
625
628
627
629
649
675
718
798
882
968
1023
1023
991
917
836
771
699
640
561
490
520
541
547
550
558
591
639
667
655
621
568
514
529
570
594
584
564
562
562
609
649
647
644
665
664
654
631
603
599
616
629
632
633
615
626
657
634
640
677
687
683
669
651
655
686
727
733
725
698
666
641
641
669
683
691
714
703
670
648
680
742
755
749
724
715
730
742
705
670
658
664
674
677
703
731
737
749
755
764
771
769
761
755
731
719
741
765
752
726
715
728
711
691
695
689
674
660
685
721
735
734
742
732
712
694
683
675
710
731
700
668
647
594
554
552
571
593
575
570
591
573
573
561
556
570
574
564
554
554
582
577
566
556
536
549
563
564
583
578
572
594
611
596
581
567
550
529
527
556
601
615
602
637
625
568
560
618
655
662
652
604
581
601
623
602
589
570
590
602
577
561
579
616
660
671
688
673
612
604
596
599
633
673
704
683
646
611
602
599
585
596
606
601
609
611
640
660
668
669
670
664
637
616
613
655
687
688
686
677
673
686
659
625
610
649
673
648
637
667
691
681
663
648
622
585
565
574
592
615
645
686
707
715
689
637
592
580
618
644
610
594
621
630
634
656
679
720
718
683
634
642
670
685
679
682
686
655
613
629
680
714
670
644
643
651
657
628
615
661
717
724
689
655
633
612
624
635
618
631
702
723
717
669
624
638
654
662
682
693
687
703
692
684
700
712
718
682
669
681
695
716
735
741
732
719
706
686
668
664
672
688
701
710
699
688
646
633
647
669
633
623
627
600
623
651
664
684
679
681
692
679
686
720
760
826
886
957
1015
1023
1023
1023
1023
942
841
735
661
608
585
558
553
554
565
567
592
644
649
658
650
635
617
631
642
618
582
579
643
693
697
684
654
622
633
641
626
629
641
661
692
688
708
723
697
657
647
646
647
647
673
692
694
699
721
711
675
658
673
700
720
729
720
715
732
752
745
754
740
708
710
737
726
711
725
745
727
719
743
784
801
788
737
696
692
704
719
713
707
724
760
778
799
815
812
810
795
799
809
832
830
800
775
755
718
704
728
791
862
844
790
749
731
733
719
704
713
746
759
746
695
673
713
744
763
746
716
701
677
642
595
608
628
634
653
636
612
606
613
628
637
622
621
618
609
589
596
595
609
627
641
634
609
615
639
677
716
720
666
631
609
609
617
611
619
646
667
688
729
727
677
652
647
639
636
611
586
591
596
605
641
688
751
782
736
691
663
662
659
636
635
651
655
679
677
672
653
623
608
601
600
622
640
671
692
699
696
716
688
636
628
665
707
739
742
737
686
636
643
652
639
638
631
649
664
659
691
705
701
651
623
616
618
645
669
672
668
684
742
777
726
637
581
608
633
644
666
687
693
683
696
707
716
720
712
712
680
673
655
661
669
656
640
636
635
636
656
709
761
770
756
724
659
607
608
612
608
613
680
701
701
729
728
724
709
674
628
598
612
626
629
640
653
655
643
664
711
726
714
703
691
657
625
619
605
573
594
646
665
690
698
682
649
631
637
645
662
658
650
657
663
659
662
697
730
707
628
590
596
602
613
667
679
650
629
620
573
554
571
604
647
689
692
662
624
590
599
638
650
641
639
653
647
636
654
689
695
673
637
622
651
659
644
620
638
612
616
643
627
620
608
604
631
671
684
680
674
646
637
635
652
670
671
669
674
674
666
653
645
633
613
616
606
582
582
604
601
607
639
667
667
633
596
610
662
719
799
862
913
960
984
989
1000
976
891
824
719
630
566
535
507
483
474
472
474
468
463
495
542
553
549
539
556
583
596
580
582
559
554
570
557
565
608
645
630
596
570
597
600
603
626
618
597
587
590
593
578
529
523
571
574
550
555
554
552
574
621
645
645
662
699
676
632
583
591
616
611
612
629
620
614
612
602
576
564
604
654
680
664
626
614
647
689
683
658
676
680
674
684
672
672
650
639
651
680
677
682
707
716
752
745
696
659
623
615
622
643
645
662
697
706
713
712
686
652
658
666
655
647
632
606
569
568
600
626
690
714
665
579
555
560
593
595
585
571
564
583
597
621
601
548
503
514
539
541
548
554
555
551
592
615
583
582
580
564
548
521
503
524
531
547
564
574
589
581
596
579
559
565
570
596
595
567
560
570
604
644
659
650
613
551
545
562
571
558
578
627
627
602
584
564
556
587
626
638
627
612
575
533
529
550
571
561
565
567
527
522
557
602
649
663
655
609
583
563
538
532
542
569
607
610
587
596
620
642
600
575
559
554
546
539
564
599
620
628
647
644
606
559
529
533
580
625
599
589
581
590
633
717
733
683
635
573
509
487
511
526
512
524
573
636
670
684
643
616
609
597
606
592
602
602
585
585
607
658
697
671
636
610
572
529
520
538
556
578
589
601
618
641
637
620
652
689
651
574
519
537
592
606
611
616
576
532
503
548
598
633
659
702
694
612
539
535
576
586
585
580
585
581
577
555
554
561
589
618
627
630
635
640
672
667
648
621
571
527
567
634
632
602
590
606
603
602
585
563
558
558
565
567
563
581
570
577
600
586
590
579
563
576
556
555
592
660
670
645
593
548
522
544
595
626
623
579
559
594
615
627
628
617
596
556
561
598
624
628
641
656
644
596
576
560
570
575
552
542
554
558
560
577
616
597
562
533
526
559
580
606
656
723
765
819
912
947
917
882
857
824
767
703
629
551
506
500
447
402
407
438
467
478
506
500
482
517
568
577
554
502
458
467
499
520
525
532
537
588
602
583
537
507
522
540
540
516
513
498
496
537
565
573
595
594
574
561
563
572
574
545
528
551
552
519
543
551
607
661
653
621
574
537
541
549
553
566
576
595
599
588
604
626
626
659
668
653
618
603
615
597
574
578
596
584
563
581
606
618
647
666
668
660
685
726
763
797
783
703
590
539
540
559
583
595
617
638
617
582
577
612
642
648
628
596
597
590
565
566
574
574
566
539
554
628
706
717
620
497
431
403
412
439
451
455
459
475
491
497
478
476
486
487
502
538
562
525
482
468
470
471
431
439
485
521
539
539
555
537
537
532
516
476
469
468
485
507
526
566
584
560
530
504
467
470
504
522
530
535
540
556
557
554
552
548
541
564
569
541
544
518
471
475
515
542
569
574
550
534
520
520
516
530
543
546
556
542
523
553
574
548
510
505
504
495
500
499
514
578
591
548
510
497
499
519
555
567
560
541
520
520
534
552
578
610
593
559
540
517
497
501
536
577
617
616
608
571
533
507
501
517
537
549
564
553
526
532
582
602
568
523
501
506
504
535
567
570
557
554
547
548
542
565
576
560
539
550
572
612
646
621
550
504
526
517
491
484
515
549
552
558
543
529
534
563
591
599
581
576
550
474
475
515
542
586
630
611
561
512
481
483
513
540
522
517
554
540
529
552
579
573
544
528
518
521
546
538
519
532
524
524
542
566
583
567
517
499
523
542
546
534
517
527
535
498
508
512
505
568
627
626
578
515
484
492
504
505
460
457
492
523
532
517
513
561
577
595
635
629
598
613
611
562
513
490
487
492
512
536
527
530
568
526
488
539
592
606
569
506
493
510
520
510
530
525
502
497
525
638
726
830
953
1023
994
913
817
763
727
672
606
534
460
415
384
348
353
370
398
441
460
459
449
447
449
460
438
425
431
443
463
505
555
604
610
589
569
558
504
448
406
408
420
435
477
499
484
467
454
453
508
556
556
544
536
522
516
500
485
509
510
561
612
619
598
568
527
493
484
482
472
473
501
560
590
598
585
582
549
515
512
555
572
570
595
640
656
621
565
518
512
574
615
613
584
548
562
589
613
613
593
568
570
580
615
621
599
602
601
602
600
593
580
566
581
585
610
594
569
565
584
592
572
536
514
478
475
464
489
511
526
537
548
561
528
491
473
462
456
440
448
465
494
494
478
476
453
452
440
436
461
487
496
481
469
455
445
472
503
477
458
427
420
430
439
475
503
496
467
497
530
547
527
489
462
453
495
523
490
505
568
580
560
539
518
504
501
496
504
501
474
490
524
545
553
526
508
554
555
519
508
515
499
520
518
541
562
560
581
616
586
542
463
444
468
512
547
546
511
486
482
491
505
517
533
567
586
584
567
550
526
533
519
488
465
479
516
532
539
569
601
641
617
548
505
493
502
495
491
525
535
505
499
518
541
572
563
528
526
597
695
703
621
544
515
514
509
449
446
477
504
506
503
532
569
575
587
586
552
534
521
510
513
501
499
503
513
527
534
527
522
529
554
601
627
618
566
506
497
500
492
494
488
507
537
544
544
547
527
523
534
528
522
521
498
492
523
530
526
525
534
548
557
573
550
499
476
483
503
502
506
496
473
476
493
523
519
519
522
504
518
544
558
565
566
563
556
531
518
560
632
640
600
556
515
508
536
536
498
469
482
521
542
533
531
550
550
544
548
525
522
546
536
499
465
435
443
467
478
489
531
547
530
521
513
507
501
517
538
572
611
619
651
734
831
872
881
862
848
818
759
687
647
600
478
352
292
291
327
354
365
398
427
440
440
453
489
519
515
490
475
459
440
459
506
543
535
484
425
409
417
429
455
466
473
491
526
535
503
502
526
537
538
512
482
462
473
493
515
552
595
594
560
515
487
489
494
492
478
463
440
446
476
485
487
496
530
550
567
570
552
561
591
591
615
650
649
585
528
485
483
491
508
502
523
559
567
581
609
634
628
614
598
584
605
640
630
580
546
514
538
580
574
544
533
539
530
540
556
560
543
540
550
573
563
526
514
512
524
548
549
547
517
503
499
482
452
440
426
410
398
416
452
462
445
460
454
441
443
468
499
512
480
449
414
392
407
426
419
432
439
426
422
422
460
508
465
439
438
485
531
554
538
509
504
478
463
478
480
472
468
490
506
496
472
482
504
509
495
473
473
472
481
523
548
519
499
469
467
498
518
539
534
516
518
565
570
512
475
459
464
460
458
452
454
496
511
489
480
514
523
525
551
548
535
511
492
511
534
543
524
525
522
511
516
515
514
512
523
515
479
468
475
513
541
531
469
429
437
495
551
569
585
581
563
578
578
506
452
469
525
532
527
561
569
536
491
454
473
507
515
524
534
533
531
557
551
541
532
513
473
435
458
509
551
559
550
562
570
534
531
527
576
602
564
518
486
513
541
528
524
525
541
560
550
519
502
495
494
506
515
530
538
543
547
544
575
579
550
502
481
478
496
526
548
543
507
506
514
517
579
629
631
593
538
475
476
503
502
481
475
503
538
547
532
509
514
526
533
537
538
520
523
537
530
566
558
553
554
566
550
538
528
537
541
543
531
543
554
525
505
528
555
548
551
540
531
521
512
519
535
568
561
546
500
458
439
476
504
489
493
540
586
583
632
720
825
922
934
882
838
784
741
715
664
564
492
429
381
394
419
419
407
401
397
401
406
434
500
511
490
464
423
437
447
459
489
519
497
441
408
421
435
435
435
455
484
498
498
525
561
531
494
479
449
419
445
480
513
526
519
520
484
453
462
499
509
506
511
530
556
511
467
491
516
530
525
519
526
510
508
498
510
524
540
567
580
554
547
544
528
520
508
513
537
581
626
662
662
637
603
597
586
553
522
523
519
519
531
540
576
595
577
554
533
541
546
546
558
533
514
541
586
623
621
585
548
515
493
467
469
474
473
475
468
493
479
450
438
442
435
442
465
449
442
442
442
447
442
416
428
443
451
457
462
439
421
440
442
420
422
435
441
432
452
449
429
427
458
487
476
450
451
466
477
457
463
491
495
484
463
457
490
498
492
464
441
433
459
474
495
519
492
487
496
504
496
482
487
503
521
547
509
489
523
537
510
496
452
428
450
480
519
521
494
491
487
497
524
557
590
580
541
503
454
423
422
418
436
474
550
609
576
541
504
463
424
432
449
483
488
509
510
506
533
545
596
623
586
513
471
474
519
526
505
471
459
484
509
519
506
489
526
561
569
568
570
558
524
478
465
449
449
456
499
567
611
620
592
551
481
463
495
507
503
518
533
533
504
515
536
549
556
528
511
493
503
506
523
543
528
503
507
520
528
504
522
549
569
568
545
524
492
469
471
522
583
631
619
560
507
467
442
480
507
497
482
488
502
523
540
553
552
517
487
492
483
483
496
520
543
555
555
550
559
569
559
533
526
527
514
509
514
564
592
564
518
480
449
462
510
538
532
523
523
545
557
553
553
559
552
534
519
551
606
597
567
584
560
512
535
537
533
516
486
495
496
531
552
573
561
507
458
482
525
536
512
492
472
447
504
566
618
642
672
700
737
816
865
901
904
878
824
751
653
564
488
424
390
360
350
357
361
358
394
451
501
492
466
460
431
400
397
419
415
411
436
463
519
547
513
463
458
457
451
452
477
495
506
487
467
471
478
473
459
472
524
559
493
458
489
522
550
512
522
566
545
499
492
472
461
449
459
484
519
552
548
558
552
546
501
493
515
577
594
572
554
614
618
586
541
510
524
556
567
592
572
570
610
607
626
640
560
501
537
563
592
594
589
547
522
517
554
547
549
580
550
543
602
632
568
483
466
482
476
473
480
456
476
462
439
427
443
426
420
398
380
402
404
413
430
416
425
488
478
411
386
369
355
359
409
451
432
419
437
430
428
420
404
385
334
291
322
416
550
721
918
1023
1023
1023
1023
1023
1023
1023
1023
1023
1023
1023
1023
1023
1023
1023
1023
1023
1023
1023
1023
1023
1023
1023
1023
1023
1023
1023
1023
1023
1023
1023
1023
1023
1023
1023
1023
1023
1023
1023
1023
1023
1023
1023
1023
1023
1023
1023
1023
1023
1023
1023
1023
1023
1023
1023
1023
1023
1023
1023
1023
1023
1023
1023
1023
1023
1023
1023
1023
1023
1023
1023
1023
1023
1023
1023
1023
1023
1023
1023
1023
1023
1023
1023
1023
1023
1023
1023
1023
1023
1023
1023
1023
1023
1023
1023
1023
1023
1023
1023
1023
1023
1023
1023
1023
1023
1023
1023
1023
878
462
257
351
635
788
621
315
165
90
49
28
16
10
6
4
3
2
2
2
1
1
1
1
1
1
1
1
1
1
1
1
1
1
1
1
1
1
1
1
1
1
1
1
1
1
1
1
1
1
1
1
1
1
1
1
1
1
1
1
1
1
1
1
1
0
1
1
1
1
1
1
1
1
1
1
1
1
1
1
1
1
1
1
1
1
1
1
1
0
1
1
1
0
1
1
1
0
1
1
1
1
0
1
1
0
1
1
1
1
1
1
1
1
1
1
1
0
1
1
1
1
1
1
1
1
1
1
1
1
1
1
1
1
1
1
1
1
1
1
1
1
1
1
1
1
1
1
1
1
1
1
1
1
1
1
1
1
1
1
1
1
1
1
1
1
1
1
1
1
1
0
1
1
1
1
1
1
0
1
1
1
1
1
1
1
1
1
1
1
1
0
1
1
1
0
1
1
0
1
1
1
1
1
1
1
1
1
0
1
1
1
1
1
1
1
1
1
1
1
1
1
1
1
1
1
0
1
1
1
1
1
1
1
1
1
1
1
1
1
1
1
1
1
1
1
1
1
1
1
1
1
1
1
1
1
1
1
1
0
1
1
1
1
1
1
1
1
1
1
1
0
1
1
1
1
1
1
1
1
1
1
1
1
1
1
1
1
1
1
1
0
1
0
1
1
0
1
0
0
1
1
1
1
1
1
1
1
1
1
1
0
1
1
1
0
1
1
0
1
1
1
1
0
1
1
1
1
0
1
0
1
1
1
1
0
1
1
1
1
0
0
1
1
1
0
1
1
1
1
1
1
1
1
0
1
1
1
0
1
1
1
1
1
1
1
1
0
1
1
1
1
1
1
1
0
1
1
0
0
1
1
1
1
1
1
1
1
1
0
1
1
1
1
1
1
1
1
1
1
1
0
1
1
1
1
1
1
1
1
1
1
1
1
1
1
1
1
1
1
1
1
1
3
9
17
25
33
38
43
48
53
59
67
73
78
84
89
92
97
103
110
115
119
124
128
133
137
141
146
152
158
161
165
169
173
178
183
188
192
196
198
201
204
209
213
217
222
226
229
232
235
239
244
249
253
257
261
264
267
271
274
279
283
286
288
289
290
293
297
302
307
311
314
315
317
321
326
331
335
338
339
340
342
345
350
354
358
361
363
365
367
371
376
380
383
387
391
392
394
398
402
408
411
414
417
422
426
429
432
436
441
445
448
450
453
456
459
464
469
473
477
480
483
485
489
493
497
500
501
503
506
511
516
521
524
526
529
531
532
536
539
542
545
547
551
555
557
559
561
564
565
567
569
572
573
575
578
582
587
591
593
595
597
600
603
607
609
611
614
617
622
625
627
630
633
634
635
638
640
642
644
646
647
648
651
654
657
660
662
664
666
667
669
673
675
676
677
678
680
683
685
687
690
693
695
697
698
698
700
703
705
707
709
711
713
714
716
718
719
719
720
721
725
728
729
731
732
734
734
735
736
737
739
743
746
748
749
749
748
748
750
752
751
