235
142
86
331
897
1023
1023
1023
669
397
238
143
87
317
889
1023
1023
1023
678
402
241
145
88
298
878
1023
1023
1023
683
405
243
146
89
283
868
1023
1023
1023
675
400
240
145
88
263
855
1023
1023
1023
633
376
225
136
82
213
821
1023
1023
971
567
337
202
122
74
190
804
1023
1023
923
540
322
193
116
71
176
792
1023
1023
887
520
310
186
112
68
164
783
1023
1023
858
503
300
180
109
66
155
775
1023
1023
835
490
292
175
106
65
147
767
1023
1023
823
483
288
173
104
64
140
760
1023
1023
805
473
282
169
102
62
138
758
1023
1023
796
468
279
167
101
62
133
753
1023
1023
786
462
275
165
100
61
128
748
1023
1023
768
452
269
162
97
60
124
746
1023
1023
753
443
264
159
96
59
119
741
1023
1023
736
433
258
155
93
57
113
733
1023
1023
716
421
251
151
91
56
111
733
1023
1023
706
416
248
149
90
55
110
731
1023
1023
699
412
245
148
89
55
107
728
1023
1023
686
405
241
145
87
54
107
729
1023
1023
679
400
239
144
87
53
106
728
1023
1023
678
400
238
143
86
53
106
728
1023
1023
674
397
237
142
86
53
109
732
1023
1023
675
398
237
143
86
53
110
734
1023
1023
673
397
237
142
86
53
109
732
1023
1023
665
392
234
141
85
52
111
735
1023
1023
662
391
233
140
84
52
116
741
1023
1023
675
398
237
143
86
53
116
741
1023
1023
664
392
233
140
85
52
117
743
1023
1023
662
390
233
140
84
52
119
745
1023
1023
660
389
232
140
84
52
120
745
1023
1023
656
387
231
139
84
51
125
751
1023
1023
652
385
229
138
83
51
129
755
1023
1023
655
386
230
139
84
51
131
757
1023
1023
652
385
229
138
83
51
135
762
1023
1023
654
386
230
138
83
51
138
765
1023
1023
654
386
230
138
83
51
141
767
1023
1023
654
386
230
138
83
51
146
772
1023
1023
656
387
231
139
84
51
150
776
1023
1023
657
387
231
139
84
51
153
778
1023
1023
658
388
232
139
84
52
158
783
1023
1023
660
389
232
140
84
52
162
786
1023
1023
662
391
233
140
84
52
166
789
1023
1023
663
391
233
140
85
52
173
795
1023
1023
668
394
235
141
85
52
177
799
1023
1023
671
396
236
142
86
52
180
801
1023
1023
671
396
236
142
86
52
187
807
1023
1023
672
396
236
142
86
52
191
810
1023
1023
675
398
238
143
86
53
196
814
1023
1023
679
401
239
144
87
53
206
820
1023
1023
688
406
242
145
88
54
212
824
1023
1023
693
408
243
146
88
54
219
829
1023
1023
695
410
244
147
89
54
230
836
1023
1023
698
411
245
147
89
54
241
843
1023
1023
700
413
246
148
89
55
256
852
1023
1023
702
414
247
148
90
55
274
863
1023
1023
703
415
247
149
90
55
290
872
1023
1023
700
413
246
148
89
55
308
883
1023
1023
692
409
244
147
88
54
334
898
1023
1023
689
407
242
146
88
54
363
915
1023
1023
682
403
240
145
87
54
398
935
1023
1023
671
396
237
142
86
53
440
959
1023
1023
654
387
231
139
84
52
488
987
1023
1023
637
377
225
136
82
50
553
1023
1023
1023
623
369
221
133
80
57
622
1023
1023
1023
611
362
217
131
79
87
697
1023
1023
1023
598
355
212
128
78
239
842
1023
1023
1023
604
358
215
130
262
856
1023
1023
1023
1023
670
398
239
241
827
1023
1023
1023
1023
1023
674
402
257
766
1023
1023
1023
1023
1023
1023
647
387
682
1023
1023
1023
1023
1023
1023
1019
600
522
1014
1023
1023
1023
1023
1023
1023
927
549
814
1023
1023
1023
1023
1023
1023
1023
819
525
957
1023
1023
1023
1023
1023
1023
1023
680
443
907
1023
1023
1023
1023
1023
1023
869
515
310
622
1023
1023
1023
1023
1023
1023
715
426
708
1023
1023
1023
1023
1023
886
524
315
190
481
987
1023
1023
1023
1023
784
466
280
169
419
907
641
374
221
133
81
50
31
20
13
9
6
4
3
2
2
2
1
1
1
1
1
1
1
1
1
1
1
1
1
1
1
1
1
1
1
1
1
1
1
1
1
1
1
1
1
1
0
1
1
206
814
801
461
272
162
97
59
36
23
434
955
1023
676
397
236
142
85
52
47
630
1023
1023
1023
612
363
217
131
79
91
697
1023
1023
985
574
341
204
123
75
91
697
1023
1023
879
515
306
184
111
68
95
694
1023
1023
723
425
253
152
92
56
40
494
983
900
521
308
183
110
67
41
27
388
830
711
411
242
144
87
53
32
61
586
1023
1023
667
392
233
140
84
55
319
874
1023
1023
1023
648
384
230
139
180
552
1023
1023
1023
1023
680
403
241
145
234
596
1023
1023
1023
1023
636
378
226
137
135
397
886
1023
1023
863
516
307
184
111
137
450
944
1023
1023
1023
686
406
242
165
337
717
1023
1023
1023
1023
868
515
308
337
621
990
1023
1023
1023
1023
1023
706
510
657
998
1023
1023
1023
1023
1023
1023
962
748
816
1023
1023
1023
1023
1023
1023
1023
1023
859
909
1023
1023
1023
1023
1023
1023
1023
1023
1023
1023
1023
1023
1023
1023
1023
1023
1023
1023
1023
1023
1023
1023
1023
1023
1023
1023
1023
1023
1023
1023
1023
1023
1023
1023
1023
1023
1023
1023
1023
1023
1023
1023
1023
1023
1023
1023
1023
1023
1023
1023
1023
1023
1023
1023
1023
1023
1023
1023
1023
1023
1023
1023
1023
982
957
1017
1023
1023
1023
1023
1023
1020
771
626
819
1023
1023
1023
1023
1023
1023
1023
1023
633
605
1023
1023
1023
1023
1023
1023
1023
1023
854
922
1023
1023
1023
1023
1023
1023
1023
1023
826
831
1023
1023
1023
1023
1023
1023
1023
1023
928
1023
1023
1023
1023
1023
1023
1023
1023
1023
1023
1023
1023
1023
1023
1023
1023
1023
1023
1023
1023
1023
1023
1023
1023
1023
1023
1023
1023
1023
1023
1023
1022
1023
1023
1023
1023
900
754
625
467
283
172
105
65
40
26
16
11
7
5
4
3
2
2
2
1
1
1
1
1
1
1
1
1
1
1
1
1
1
1
1
1
1
1
1
1
1
1
1
1
1
1
1
1
1
1
1
1
1
1
1
1
1
1
1
1
1
1
1
1
1
1
0
1
1
1
1
1
1
1
0
1
1
1
1
1
1
1
80
175
138
79
46
27
16
10
6
4
87
220
261
207
121
71
42
25
15
9
67
153
155
93
54
32
19
11
7
5
16
53
46
26
15
9
5
4
2
2
17
28
18
10
6
4
2
2
1
37
177
297
317
272
202
118
88
118
181
265
335
340
287
184
108
63
38
23
14
9
29
57
40
23
13
8
5
3
6
53
162
223
235
225
186
120
96
149
246
360
486
549
531
470
376
236
162
191
280
383
545
648
622
527
397
242
172
211
283
375
520
613
602
529
442
322
286
345
435
536
649
696
663
592
502
380
326
376
468
572
712
804
810
767
683
555
484
503
587
698
818
860
847
831
800
700
625
632
688
771
846
884
862
809
756
691
662
694
752
812
885
942
971
962
920
839
757
711
705
766
895
983
987
955
915
862
825
833
884
945
1023
1023
1023
1023
1021
971
945
958
996
1021
1023
1023
1023
1009
961
919
910
922
944
979
1023
1023
1023
1023
988
917
865
872
934
1022
1023
1023
999
928
867
808
794
822
845
864
914
962
960
937
887
814
768
778
811
877
965
1007
995
967
945
895
841
832
861
908
976
1023
1023
1004
957
880
812
796
831
878
952
1009
1023
1023
991
940
910
919
954
991
1023
1023
1021
995
980
966
939
939
970
1007
1023
1023
1023
1023
1023
982
949
938
937
983
1023
1023
1023
1023
1018
996
1006
1014
1023
1023
1023
1023
1023
1023
1023
1000
982
1008
1023
1023
1023
1023
1023
1023
1023
993
972
985
1022
1023
1023
1023
1023
1023
1023
1003
966
961
971
982
1011
1023
1023
1023
1014
990
961
943
964
1007
1023
1023
1023
1023
1000
957
931
934
957
982
1000
1009
993
959
934
901
875
888
934
997
1023
1023
1023
960
903
854
822
819
847
867
879
895
897
879
849
809
823
861
895
906
920
920
910
902
861
813
792
816
866
888
878
845
806
768
730
707
713
737
770
812
844
840
824
792
755
718
708
730
744
769
793
794
787
769
739
696
668
650
672
709
748
779
784
752
723
691
677
690
706
721
732
714
672
641
630
622
638
674
711
742
769
753
706
671
673
675
666
662
670
689
730
739
704
652
620
618
625
643
671
690
718
733
724
705
674
649
627
597
590
639
691
707
706
714
705
672
643
648
670
687
705
721
727
714
704
693
673
653
627
616
653
694
712
690
655
625
602
597
617
637
658
674
681
674
670
677
671
710
743
738
724
702
667
624
599
602
624
633
643
662
680
682
668
656
662
658
667
689
719
736
754
758
725
673
633
605
607
612
622
643
658
678
691
697
693
661
622
591
588
599
613
626
624
634
659
670
688
717
747
799
858
912
910
856
827
827
835
837
825
802
774
725
655
583
544
513
473
446
455
497
549
585
605
601
584
563
557
577
584
554
516
498
508
516
532
550
557
568
590
604
586
571
559
536
520
513
502
506
523
517
517
511
500
507
531
540
535
544
568
594
590
568
559
568
556
515
491
486
492
493
498
503
524
549
561
541
498
467
464
474
493
500
489
475
469
486
516
538
539
539
541
532
523
506
461
430
441
453
460
490
540
564
573
572
583
579
546
518
509
504
514
528
525
523
536
526
497
473
480
518
567
596
580
549
528
507
512
522
531
530
523
503
494
490
487
494
508
536
547
545
544
556
565
558
540
528
521
498
462
436
443
467
478
482
483
471
447
426
417
421
452
473
446
392
346
312
284
292
317
335
350
380
392
387
374
349
346
347
348
353
368
378
365
326
287
264
254
242
249
279
313
361
387
378
339
295
280
289
321
359
383
371
332
291
260
249
282
309
321
337
350
358
372
375
374
378
369
358
354
352
356
356
351
354
344
340
343
363
376
386
407
425
422
380
327
295
280
286
307
351
404
435
428
395
359
332
328
347
355
368
388
384
371
355
348
371
378
373
341
302
275
277
329
405
427
426
436
429
413
403
381
360
346
348
339
319
313
303
313
347
388
413
414
392
372
352
337
336
336
340
351
367
365
354
355
358
354
344
337
360
379
396
403
374
338
313
327
373
408
424
433
430
385
341
330
346
355
360
356
345
356
376
384
384
377
360
337
315
303
297
306
318
337
356
375
397
408
409
414
427
442
435
408
383
362
322
296
319
370
400
408
399
386
403
425
419
393
372
365
370
392
417
416
406
397
375
349
338
338
348
363
384
389
381
379
367
371
415
436
438
424
425
446
458
445
402
353
327
335
363
392
397
398
401
393
381
375
384
405
423
446
435
390
353
344
337
340
359
375
388
411
440
455
432
400
355
347
359
371
379
405
425
425
405
381
370
364
382
416
438
431
416
398
391
390
381
366
376
411
439
452
455
431
398
369
358
369
387
404
424
442
444
425
410
393
366
345
342
340
341
355
384
407
417
421
412
403
409
417
422
424
435
447
455
454
427
380
362
362
371
386
392
386
367
333
296
277
287
321
341
371
406
411
377
331
283
269
285
297
281
247
227
224
234
250
273
303
325
339
366
402
435
467
506
559
611
643
636
602
562
513
464
402
338
275
223
192
183
181
176
205
232
217
179
164
153
142
154
184
209
219
215
213
229
241
225
191
170
164
166
181
207
240
267
272
262
258
260
270
262
235
218
226
233
223
226
230
248
277
296
305
326
334
316
297
264
241
245
265
285
297
308
330
340
346
344
345
356
362
352
350
357
370
366
356
350
341
339
358
384
399
408
422
417
387
351
313
295
311
367
422
428
407
395
405
408
410
430
448
456
454
436
418
412
425
431
438
458
474
470
476
484
486
482
470
458
456
465
463
464
482
503
509
501
485
460
450
464
478
489
499
504
495
482
479
512
539
542
541
544
545
525
482
439
401
374
388
415
418
423
425
427
423
413
398
383
357
342
339
338
337
348
367
376
360
320
283
257
246
245
267
285
291
289
284
261
256
276
293
297
303
319
331
326
308
296
282
279
282
282
308
347
368
384
377
355
335
338
360
365
352
327
302
303
305
303
314
350
369
373
388
394
389
372
353
333
314
318
334
366
408
435
448
445
418
373
344
342
357
383
415
447
460
442
414
399
403
416
427
442
457
471
466
441
395
352
338
339
365
397
415
418
413
403
374
365
358
364
367
369
387
412
439
459
459
432
401
383
381
404
449
477
463
433
422
419
398
376
368
374
392
408
422
425
417
388
362
360
384
415
448
471
461
432
414
395
376
381
393
419
453
484
498
476
424
365
354
389
431
455
482
516
526
512
489
456
425
410
392
388
415
433
412
382
371
373
384
404
423
425
419
414
413
412
418
407
377
373
384
400
424
438
434
417
399
381
377
392
414
441
482
506
510
504
455
393
357
362
391
422
443
456
454
442
431
415
404
410
428
442
451
460
456
449
435
420
408
400
423
445
461
471
468
456
451
421
397
397
428
477
519
517
484
449
422
399
391
402
424
449
461
465
462
448
414
380
369
391
421
453
489
515
516
501
476
435
409
410
433
465
497
516
513
497
482
461
443
429
425
426
440
464
474
481
493
482
464
461
472
492
515
529
533
528
498
460
461
490
506
513
520
524
533
547
556
545
522
507
516
553
581
565
543
521
508
496
486
472
471
486
502
514
522
521
503
468
451
465
490
516
529
526
501
471
453
429
407
405
420
432
426
423
435
449
444
433
414
421
466
518
579
640
672
693
724
760
778
756
736
713
681
643
588
532
473
414
363
329
315
325
347
366
379
384
395
398
388
382
385
394
403
400
387
374
360
343
334
334
343
363
380
386
384
372
356
348
352
349
361
385
416
429
431
418
385
341
306
306
340
369
395
407
405
406
400
392
389
389
396
412
427
438
453
445
440
427
412
411
423
443
462
474
483
478
461
434
413
413
425
444
457
460
461
464
461
462
457
459
473
490
515
543
544
524
514
511
507
498
501
520
542
552
538
509
498
512
506
502
529
565
602
617
599
583
580
568
563
563
566
569
586
587
592
594
588
571
559
564
579
593
606
618
621
600
572
561
556
551
565
588
611
618
605
590
559
518
493
499
513
516
514
506
490
466
458
457
447
434
434
442
458
483
497
497
490
464
431
418
431
436
438
440
437
436
430
410
396
403
423
440
456
487
499
473
444
411
388
390
417
447
487
534
546
519
476
429
396
391
411
441
473
499
501
482
460
419
376
359
366
392
436
477
483
470
444
401
367
355
376
418
472
497
484
447
413
384
366
369
387
422
487
540
543
491
438
393
357
356
401
481
575
637
626
545
433
335
286
304
371
436
494
546
553
517
448
346
267
271
343
432
522
587
588
537
476
385
293
281
344
425
503
550
516
450
403
325
249
255
328
391
462
528
532
466
368
253
174
184
256
342
430
500
515
479
421
336
266
262
308
361
434
497
505
451
395
326
264
267
313
384
477
551
550
451
330
213
140
151
229
306
397
484
509
475
415
334
259
250
301
364
443
514
517
463
379
271
201
237
337
440
532
592
589
527
445
340
262
243
281
358
462
559
579
534
468
380
310
303
351
425
522
612
641
584
492
396
328
330
383
450
542
625
639
589
495
386
308
310
364
427
522
625
660
620
550
463
384
358
386
421
472
549
586
564
509
418
335
335
393
464
554
630
633
570
493
412
362
355
386
447
537
617
631
570
490
410
338
326
370
438
522
587
594
562
516
456
416
425
478
538
608
659
657
621
568
481
404
392
429
489
566
624
628
595
545
459
393
400
452
508
580
660
682
641
576
495
434
439
484
545
624
688
680
624
581
531
487
479
497
522
568
634
667
646
598
525
461
464
518
588
659
703
691
648
582
486
401
391
442
502
559
617
635
606
565
507
450
436
468
541
633
719
765
784
792
748
690
705
772
834
881
902
865
775
663
553
469
448
462
475
515
560
572
549
505
443
395
389
439
502
576
646
654
603
536
465
409
402
430
485
566
630
632
587
525
460
408
395
425
488
574
649
662
617
547
467
412
436
500
566
608
655
672
641
579
510
458
455
488
544
614
667
667
619
571
520
477
465
484
520
578
645
667
641
594
527
464
448
480
552
636
703
717
673
616
538
462
456
500
550
626
700
715
680
619
545
480
472
515
585
680
745
740
691
620
540
493
486
515
563
641
707
731
716
673
606
537
522
558
608
684
756
765
727
674
617
573
570
608
653
715
777
778
732
684
623
560
542
590
648
698
745
738
697
671
649
601
575
564
559
592
641
643
603
571
532
469
440
475
550
626
687
688
638
580
522
482
484
525
566
623
675
691
667
638
586
520
492
505
545
618
700
698
643
589
529
468
467
502
541
599
656
664
628
580
511
444
437
464
497
557
632
673
647
591
514
445
439
478
526
590
658
678
646
571
475
413
415
458
520
610
691
711
681
633
571
509
491
513
552
622
694
713
663
596
531
469
454
487
552
658
753
767
707
620
508
411
390
437
500
575
652
681
652
600
527
458
451
504
571
636
697
696
644
584
496
422
404
453
541
651
736
749
695
614
525
449
441
492
560
632
696
691
638
591
521
447
424
467
533
609
674
671
620
562
472
392
392
459
544
637
717
726
664
583
482
396
368
409
477
563
644
653
603
544
476
413
400
408
452
538
604
605
562
499
415
341
347
413
489
564
624
621
568
517
442
349
314
345
409
498
595
633
592
506
405
328
322
354
423
503
560
576
552
485
383
300
304
363
429
512
592
599
550
491
412
324
302
340
403
487
558
568
528
481
420
356
339
365
418
506
590
604
545
471
383
299
287
339
417
497
579
612
573
498
405
334
331
385
466
547
615
605
539
469
393
308
273
303
369
464
553
576
527
460
382
328
334
379
443
522
598
586
516
451
389
332
320
350
402
490
583
601
534
457
375
308
293
326
393
478
550
561
514
451
385
308
294
340
399
482
565
580
532
462
372
284
274
343
421
499
584
593
536
458
356
266
253
313
397
485
556
556
496
417
336
269
272
325
392
472
555
569
533
470
384
312
294
339
404
480
551
570
552
497
399
307
282
326
387
474
576
603
551
479
395
306
281
320
374
453
542
563
518
448
364
283
270
325
404
495
575
576
505
411
327
266
261
316
387
456
521
528
497
475
451
429
466
555
658
775
866
879
833
755
637
503
435
430
448
488
538
539
490
412
332
267
261
290
355
446
527
543
493
430
357
273
242
270
321
393
481
516
486
436
357
275
253
297
368
455
550
576
533
451
353
278
282
345
417
490
531
523
488
452
393
324
316
363
438
519
591
613
589
524
441
360
332
368
436
514
592
623
584
517
433
361
359
416
488
571
646
665
619
552
482
418
417
465
508
565
637
671
652
582
498
419
397
438
503
577
657
689
655
600
525
433
403
446
524
605
675
688
648
590
521
447
426
438
487
571
662
698
663
596
505
423
413
464
541
624
686
675
623
569
506
447
453
500
559
628
701
705
636
559
498
431
403
439
494
550
612
628
586
518
435
348
319
347
405
503
592
620
570
478
367
270
236
263
312
377
451
480
450
406
334
257
232
275
346
424
502
517
468
403
320
231
210
263
343
427
514
542
502
441
361
271
249
296
353
422
477
495
481
446
379
298
282
328
388
454
531
550
512
448
362
268
240
288
356
446
536
558
515
448
365
285
269
305
354
425
508
536
505
444
360
280
279
348
432
497
571
601
569
499
410
327
316
352
408
482
545
556
513
445
372
318
312
365
443
530
617
652
610
509
400
297
269
321
400
476
545
557
509
460
397
332
312
328
392
488
583
609
564
493
408
327
284
304
376
472
553
560
509
442
367
305
308
361
425
499
585
600
551
483
411
341
323
349
394
465
548
576
550
500
424
342
317
353
421
497
575
597
569
521
432
323
282
325
396
460
530
550
523
475
407
336
318
354
419
484
546
578
553
503
440
361
331
364
408
458
529
554
529
481
416
353
347
390
442
522
597
617
576
496
410
336
323
358
416
500
590
617
589
537
464
379
349
365
401
475
568
603
571
503
414
325
294
330
399
489
582
615
571
501
440
383
376
422
476
532
591
606
572
511
425
346
332
369
429
516
599
617
577
529
471
386
344
370
428
498
575
599
580
545
494
419
374
377
414
494
592
625
587
525
457
384
357
392
445
517
595
605
583
547
471
389
371
403
451
507
589
627
606
559
485
398
370
407
454
520
606
648
622
556
467
375
349
384
450
539
622
643
609
546
471
394
366
385
440
524
612
616
557
501
430
362
358
419
498
572
639
664
641
584
506
431
408
432
480
554
632
653
617
563
486
397
374
430
499
573
653
675
656
617
555
478
434
435
454
501
580
617
587
525
450
369
348
393
461
530
599
620
576
514
448
384
373
400
437
503
582
622
601
561
505
441
444
516
616
742
879
949
933
860
764
654
585
581
601
627
656
640
578
484
379
281
236
275
352
438
529
573
553
507
439
358
334
366
421
503
593
612
559
495
428
353
331
361
416
491
584
623
589
515
424
337
321
357
409
473
551
586
557
493
427
371
371
415
466
537
619
636
591
521
444
367
346
382
427
498
596
646
623
558
474
384
350
383
459
558
660
700
665
572
457
355
331
379
443
509
591
621
590
529
455
376
344
390
464
544
625
654
626
574
512
439
416
450
508
586
666
679
621
542
472
419
416
470
544
629
705
724
681
612
544
469
446
479
529
601
680
713
681
618
539
458
437
473
526
600
680
704
661
596
533
460
440
485
535
584
650
658
603
535
465
394
370
401
453
514
583
595
554
491
408
309
274
311
368
436
521
548
524
470
388
288
237
249
298
377
474
528
519
468
398
314
287
324
370
422
505
541
514
463
398
327
305
335
387
465
565
605
567
500
419
327
295
334
408
485
567
599
565
493
413
333
310
338
391
471
561
592
555
496
409
306
284
348
430
515
602
638
606
545
468
385
352
380
436
506
591
615
570
507
439
364
352
391
452
532
627
666
628
565
487
399
361
392
455
521
594
626
596
529
451
372
349
380
445
534
624
648
597
529
454
359
317
358
435
519
609
645
626
572
492
401
365
393
447
510
597
629
595
544
478
394
350
381
454
536
627
659
620
567
493
396
354
386
449
537
639
656
588
513
440
362
344
388
467
557
640
675
650
580
494
407
390
441
500
558
622
639
610
557
491
415
393
449
535
614
698
726
680
614
529
438
424
469
532
625
734
766
726
658
577
495
463
495
581
688
783
814
772
704
629
543
518
571
658
749
842
871
825
756
673
577
541
583
655
745
848
882
820
726
627
526
507
574
665
755
865
918
898
826
712
569
499
527
599
675
764
792
745
675
594
513
488
530
597
659
731
762
724
647
557
470
436
472
541
630
720
735
682
611
536
443
404
442
531
630
711
723
670
597
508
395
347
389
466
549
641
693
655
564
462
362
328
376
456
543
636
663
615
527
420
318
291
349
431
513
596
622
583
518
429
323
270
307
382
474
579
617
580
517
439
340
298
334
416
522
628
658
604
519
437
331
283
314
384
476
585
634
594
501
388
264
211
258
343
435
537
584
556
494
413
307
240
256
323
415
514
560
527
450
372
284
239
266
336
437
565
661
680
653
616
566
552
598
649
700
764
778
706
581
439
286
190
187
249
346
454
503
471
410
338
237
190
228
306
400
505
552
521
462
379
272
214
232
295
394
507
560
523
448
350
235
194
251
346
451
562
603
542
446
345
236
180
205
289
410
554
610
562
468
366
270
242
288
361
441
535
568
528
471
404
313
278
314
370
433
526
589
563
491
397
283
250
318
402
485
580
614
586
518
424
319
285
316
385
484
606
664
631
547
442
329
286
324
405
501
610
656
615
533
444
353
313
335
414
515
622
678
660
585
504
406
364
401
480
569
668
712
673
608
526
425
368
387
456
547
654
699
675
609
524
426
380
406
454
523
630
685
652
570
480
384
329
362
458
563
645
651
589
510
420
302
232
243
323
422
519
564
531
452
359
264
223
257
321
402
499
539
495
422
336
241
200
238
324
413
493
527
504
444
366
265
204
237
313
400
511
574
553
496
424
321
261
278
344
432
538
592
553
479
391
282
231
268
360
459
562
607
572
494
420
332
282
305
374
475
596
657
619
533
434
323
263
287
357
448
562
630
617
532
421
301
254
297
383
480
578
620
591
523
430
318
277
335
426
514
610
655
626
561
475
367
316
350
422
501
599
642
607
536
450
344
298
332
403
490
598
653
629
554
464
360
320
367
441
511
580
610
575
499
402
288
258
322
417
496
590
652
633
571
489
379
311
320
399
498
600
662
649
577
482
368
308
336
411
503
610
664
641
563
477
382
328
351
423
502
595
649
611
529
439
328
266
312
412
515
623
668
636
573
490
394
350
370
410
482
604
680
679
640
570
450
369
367
423
496
586
638
620
556
462
347
298
332
409
505
620
675
652
572
469
358
292
330
425
525
632
685
652
579
490
383
338
376
448
544
655
717
681
590
486
369
315
340
413
506
633
704
671
586
493
391
344
362
420
506
633
710
689
610
515
399
349
384
448
528
643
693
644
552
452
345
304
360
459
568
692
739
696
608
507
390
332
369
442
532
647
703
675
598
492
371
321
360
448
545
652
695
644
553
457
371
340
380
458
543
647
694
654
578
496
393
327
350
430
528
652
719
689
604
509
396
344
377
453
541
656
721
692
617
521
411
366
410
496
585
693
748
708
611
499
374
306
333
419
536
667
736
710
619
497
376
318
347
414
504
633
704
674
587
482
345
275
313
399
501
634
715
687
607
556
509
501
579
681
794
926
979
926
807
678
526
441
451
496
555
658
728
691
582
463
342
278
303
386
492
619
683
642
536
423
302
245
272
341
458
612
688
665
589
489
369
303
333
420
516
627
682
643
551
449
333
283
322
400
490
623
718
695
597
495
376
310
324
376
448
557
646
649
593
502
374
304
320
401
526
664
734
692
605
506
379
303
330
415
516
632
693
668
589
489
372
312
344
413
501
632
706
687
616
516
385
314
344
426
527
634
691
675
605
518
431
400
427
495
588
702
758
734
658
567
440
356
372
452
566
718
801
774
689
585
466
405
442
532
636
769
854
822
723
611
479
411
429
488
580
717
805
793
714
613
490
414
427
487
556
663
744
731
644
526
384
295
317
418
522
634
684
638
545
446
320
248
264
323
419
562
647
623
535
432
300
212
235
332
437
561
641
623
527
420
299
228
244
312
407
551
637
605
523
433
310
233
259
351
466
595
657
615
536
447
320
235
254
331
434
568
660
654
565
463
333
244
251
329
447
597
685
642
535
442
336
279
308
390
499
636
710
680
587
479
356
289
306
383
490
628
717
685
574
447
315
257
302
393
491
629
716
693
603
493
356
267
297
395
505
636
712
692
604
487
344
269
298
378
482
616
705
694
609
498
355
264
289
381
502
645
722
687
588
482
355
276
304
397
505
650
738
713
617
500
355
263
284
382
500
647
730
696
595
481
360
291
319
400
495
632
709
677
599
514
397
305
304
383
500
640
725
702
619
524
380
285
300
397
506
647
736
718
613
486
358
299
324
400
501
634
702
669
576
469
347
288
325
403
508
653
740
716
607
479
345
285
339
437
541
672
750
728
643
540
397
309
332
431
541
670
736
697
603
489
353
288
345
440
526
640
719
704
605
487
372
286
289
396
545
709
791
750
650
529
378
269
284
375
491
641
750
749
666
539
401
327
344
420
534
683
770
742
652
563
442
346
353
442
549
680
761
734
636
528
409
342
378
462
545
663
765
765
685
591
465
367
361
449
568
688
759
750
682
583
457
372
387
448
529
656
755
758
682
574
450
370
382
465
571
705
769
758
686
596
475
393
409
487
585
717
807
788
699
599
481
417
453
543
648
771
847
828
744
638
504
421
434
509
614
747
827
811
732
630
508
443
480
561
653
770
831
820
738
625
471
361
382
520
689
857
951
941
881
825
747
698
727
788
842
930
974
904
761
604
429
310
304
372
457
569
653
658
596
509
385
313
349
446
555
683
749
726
633
499
350
277
299
384
505
641
720
704
622
519
388
312
329
406
501
620
701
686
606
501
375
311
353
443
538
648
717
697
628
534
405
304
320
420
541
682
769
747
635
502
368
288
305
393
491
623
721
700
597
483
368
316
365
448
540
661
729
698
611
522
403
318
323
406
522
660
750
739
664
553
431
358
376
455
555
684
756
721
634
563
472
382
372
431
522
643
710
703
656
581
468
394
411
492
587
720
812
802
728
632
501
408
415
502
611
741
828
807
721
621
502
435
457
534
629
747
831
824
739
618
475
388
399
476
578
701
786
770
678
557
404
308
331
431
544
685
778
764
660
536
406
338
366
458
564
689
768
738
639
539
429
359
373
451
557
700
793
778
695
587
444
361
378
447
572
748
867
851
741
623
491
407
436
509
603
748
859
864
784
659
504
413
439
525
642
785
852
829
742
637
496
392
401
511
634
762
838
818
714
596
465
381
378
441
546
689
772
747
665
571
452
379
402
486
579
699
773
750
677
591
472
397
416
479
568
703
814
806
719
622
483
389
406
481
567
688
771
757
688
576
435
333
332
421
529
654
734
691
580
473
370
300
310
391
490
642
747
727
605
471
348
278
302
399
513
665
763
749
650
524
375
275
278
366
471
602
697
687
593
475
342
255
286
383
481
601
694
678
593
506
384
284
294
364
449
587
692
686
591
464
317
219
224
304
416
561
653
637
546
435
291
196
215
303
402
534
621
587
487
369
230
145
163
252
369
513
603
583
515
443
328
214
208
283
376
494
576
557
472
374
250
177
188
259
356
483
581
577
494
388
250
157
172
247
352
491
600
612
544
439
284
170
162
228
325
491
624
614
517
418
308
229
221
275
366
509
610
599
494
382
251
151
143
238
363
510
612
607
526
415
285
179
171
269
399
543
639
635
558
455
310
193
203
296
422
565
655
648
574
473
340
247
268
352
437
550
653
655
565
451
307
198
201
299
418
545
648
656
583
485
353
255
261
355
468
609
713
703
600
474
323
205
200
279
389
540
652
653
563
448
308
210
240
350
449
575
669
663
583
473
330
235
245
331
452
618
756
799
750
663
554
479
495
570
644
740
805
759
639
498
313
185
135
187
289
432
552
559
480
388
261
162
153
223
336
480
593
622
561
460
306
182
167
246
361
500
604
608
538
447
307
191
187
275
395
546
655
645
559
444
292
181
182
262
368
508
634
653
569
454
311
211
218
320
449
592
693
677
584
490
387
284
269
352
452
568
651
642
571
485
365
274
279
353
459
592
691
690
604
490
354
240
236
318
433
570
688
711
641
542
398
257
246
342
455
594
707
713
630
521
391
306
320
399
503
639
762
784
693
565
416
314
321
398
499
648
781
800
726
606
441
322
309
383
518
676
789
787
694
574
431
327
332
407
507
653
760
733
626
516
374
270
270
345
457
600
702
677
573
463
333
237
243
329
425
546
655
646
537
408
256
162
181
265
364
488
594
606
526
423
284
178
190
281
387
518
614
608
512
414
294
197
178
232
342
515
662
678
604
493
357
244
219
285
399
556
681
688
601
493
364
246
230
303
415
558
664
650
561
459
328
228
230
293
393
537
659
679
619
540
432
322
281
325
428
577
699
704
610
493
356
255
263
343
444
576
691
685
601
494
371
276
277
370
494
629
722
718
645
534
385
270
263
335
437
582
708
723
654
557
411
266
228
306
425
570
685
700
635
535
399
279
269
348
442
573
693
717
649
532
378
269
279
363
472
606
703
714
640
541
411
300
287
351
443
561
655
660
593
500
372
268
268
348
448
582
694
707
641
548
413
299
308
378
463
592
715
734
640
517
379
265
258
349
467
606
723
732
645
528
376
244
242
319
423
577
709
727
639
518
369
256
276
372
486
627
736
723
629
523
386
263
250
340
461
604
727
746
679
584
447
321
301
388
500
634
741
733
643
539
402
275
270
362
474
603
714
725
638
508
364
244
251
362
499
651
765
772
679
552
413
302
295
377
477
604
713
714
619
502
375
284
291
372
479
624
747
764
696
597
459
327
305
379
473
606
728
752
670
560
430
302
280
354
457
590
716
742
678
585
465
369
374
429
480
561
677
724
675
580
437
309
278
340
447
595
728
751
672
563
433
315
300
368
455
592
721
729
663
577
459
345
313
372
476
614
745
767
687
573
436
329
330
424
526
655
777
783
692
574
437
322
302
372
481
626
752
756
671
561
442
339
332
393
476
591
702
713
628
519
402
302
298
365
446
578
713
730
664
569
437
315
295
354
431
561
701
749
722
667
576
490
513
641
764
892
1002
1001
893
742
559
387
312
335
403
540
671
682
601
499
381
265
244
318
432
575
702
718
632
524
395
278
265
328
426
557
668
691
656
567
428
297
260
314
416
555
685
722
654
551
400
274
270
348
435
548
688
730
661
572
468
362
341
399
483
602
718
724
637
543
430
332
319
405
516
625
738
764
703
595
431
299
285
365
478
618
732
745
679
576
435
314
289
358
483
649
803
824
753
636
481
347
322
391
487
612
723
744
699
609
493
383
373
447
560
696
804
819
744
624
481
362
362
458
563
694
827
858
785
675
549
441
430
506
598
716
827
838
760
662
554
464
440
496
595
724
838
850
770
674
550
422
386
446
548
680
798
797
701
573
429
313
296
351
434
538
650
703
666
578
441
298
249
294
374
479
605
669
627
529
409
276
247
334
447
577
699
715
627
507
358
227
209
287
388
503
636
671
598
493
366
248
235
317
407
526
640
665
605
506
382
270
245
300
395
538
662
688
624
522
386
267
241
317
430
567
678
693
615
525
409
286
257
317
415
549
678
709
653
561
433
300
276
355
471
598
709
729
668
579
453
329
312
400
504
614
718
738
676
569
434
310
277
344
451
583
720
761
702
607
474
334
293
351
445
570
688
707
635
533
406
297
299
398
497
606
706
728
683
595
464
339
313
389
481
595
714
750
691
591
456
316
273
333
437
567
700
712
630
527
412
308
300
363
459
581
688
723
682
597
472
341
304
365
461
563
669
698
647
552
420
279
233
306
447
599
729
752
657
538
414
294
251
294
393
537
670
691
623
536
431
315
285
351
452
587
730
760
691
581
454
346
330
381
450
548
660
702
657
592
493
372
328
375
465
593
717
734
672
584
461
356
338
403
505
623
733
777
722
632
503
371
349
421
501
608
736
781
727
637
523
406
374
439
546
673
779
788
718
603
465
351
352
449
554
683
807
843
769
663
530
398
381
458
564
699
840
871
816
727
583
436
400
463
576
687
820
885
831
743
626
496
443
487
581
719
842
885
837
750
634
513
477
535
626
743
855
882
806
709
598
484
462
532
640
777
909
952
885
774
651
542
532
611
695
776
855
878
842
793
718
626
628
688
750
834
938
969
899
787
688
606
593
637
728
853
972
1007
970
883
750
644
642
727
831
948
1023
1023
1023
960
849
745
734
803
904
1004
1023
1023
1023
997
936
891
911
961
1023
1023
1023
1023
1023
1023
1023
1004
973
1023
1023
1023
1023
1023
1023
1023
1023
1023
1023
1023
1023
1023
1023
1023
1023
1023
1023
1023
1023
1023
1023
1023
1023
1023
1023
1023
1023
1023
1023
1023
1023
1023
1023
1023
1023
1023
1023
1023
1023
1023
1023
1023
1023
1023
1023
1023
1023
1023
1023
1023
1023
1023
1023
1023
1023
1023
1023
1023
1023
1023
1023
1023
1023
1023
1023
1023
1023
1023
1023
1023
1023
1023
1023
1023
1023
1023
1023
1023
1023
1023
1023
1023
1023
1023
1023
1023
1023
1023
1023
1023
1023
1023
1023
1023
1023
1023
1023
1023
1023
1023
1023
1023
1023
1023
1023
1023
1023
1023
1023
1023
1023
1023
1023
1023
1023
1023
1023
1023
1023
1023
1023
1023
1023
984
1023
1023
1023
1023
1023
1023
1023
1023
1023
1023
1023
1023
1023
1023
1023
1023
1023
1023
1023
1023
1023
1023
1023
1023
1023
1023
1023
1023
1023
1023
1023
1023
1023
1023
1023
1023
1023
1023
931
827
836
926
1023
1023
1023
1023
1023
896
716
657
732
844
980
1023
1023
1023
905
741
591
525
524
560
660
800
842
771
669
557
423
328
340
421
561
738
822
781
683
552
375
269
278
377
544
737
807
758
668
524
353
282
318
424
572
745
812
745
602
395
232
149
174
276
414
581
652
598
479
324
190
116
141
233
346
479
526
441
303
178
106
64
48
86
213
392
481
421
272
159
94
57
35
66
200
361
394
304
188
111
66
40
24
15
63
182
233
192
115
67
40
24
15
9
15
70
72
41
24
14
9
6
4
35
134
244
309
366
408
376
330
322
362
401
422
421
393
367
338
301
267
202
122
73
44
27
16
10
7
5
3
2
2
1
1
1
1
1
1
1
1
1
1
1
1
1
1
1
1
1
1
1
1
1
1
1
1
1
1
1
1
1
1
1
1
1
0
1
1
1
1
1
1
1
0
1
1
1
1
1
1
1
1
1
0
1
0
0
1
1
1
1
1
1
0
0
0
1
1
1
1
1
0
0
0
0
0
1
1
1
1
1
1
1
0
0
0
1
1
1
1
1
1
0
0
1
0
0
1
1
1
1
1
1
1
0
0
1
1
1
1
1
1
1
1
1
0
1
1
1
1
1
1
0
0
1
0
1
1
1
1
1
0
1
1
0
0
1
1
1
1
1
1
1
0
0
0
0
1
1
1
1
1
1
0
0
1
0
1
0
1
1
1
0
1
0
0
1
1
1
1
1
1
1
1
0
1
1
1
1
1
6
12
7
4
3
2
9
32
65
100
118
131
119
109
102
112
149
179
181
184
183
160
138
128
136
158
158
155
161
184
211
226
231
227
223
235
243
240
238
247
260
260
252
259
263
263
249
256
281
287
303
324
339
351
361
395
466
548
616
665
692
689
657
622
589
552
505
455
412
391
384
382
380
356
332
325
341
366
390
412
420
412
403
410
441
461
446
429
421
415
415
427
436
431
421
432
465
494
505
509
496
460
435
435
438
432
426
423
420
431
408
390
410
442
432
403
387
386
380
387
405
409
397
386
396
406
404
402
404
391
392
389
389
415
440
450
446
434
415
415
435
463
463
449
449
441
438
438
426
429
439
443
457
472
489
486
478
474
469
476
500
522
538
531
507
485
483
499
506
517
536
543
543
553
560
570
579
601
620
640
646
639
633
628
621
596
580
602
609
629
655
675
687
688
667
651
657
646
620
620
633
646
642
631
623
614
611
622
624
621
631
640
633
628
610
583
559
555
553
541
534
542
544
547
534
513
505
487
491
529
555
550
521
498
475
462
483
535
559
556
527
505
502
490
474
473
476
482
505
540
555
559
557
542
517
512
540
581
613
620
610
579
543
524
518
526
539
543
565
600
615
616
591
563
542
518
508
525
570
605
613
611
609
600
598
599
614
613
622
643
658
659
655
656
636
586
562
579
600
617
633
639
641
634
624
625
625
622
625
641
655
649
630
620
621
635
634
623
639
652
659
659
657
648
614
601
612
642
651
664
680
666
635
622
628
632
641
657
677
687
697
714
718
692
648
622
642
673
677
685
693
692
683
664
641
632
625
617
617
641
660
666
660
649
639
637
639
648
655
643
631
639
647
627
609
618
637
647
649
663
677
682
671
651
624
617
633
654
666
664
665
674
679
659
623
594
580
590
599
621
633
629
624
625
623
624
629
615
606
601
599
591
583
565
536
515
532
571
606
624
622
597
578
576
552
533
537
564
587
598
601
584
553
523
489
468
480
489
495
508
527
522
505
496
472
462
476
505
529
550
570
576
560
528
487
453
453
497
532
558
576
561
497
405
336
311
361
450
528
585
606
572
511
456
413
402
422
447
468
490
501
495
477
458
442
442
462
475
483
505
524
520
504
486
456
446
473
497
516
534
563
585
578
536
446
376
373
431
492
554
562
526
474
414
354
359
398
438
501
593
645
625
561
493
413
354
351
401
462
509
521
491
438
407
411
427
451
491
531
580
614
601
578
561
546
530
530
550
589
645
686
673
639
592
546
544
572
591
604
632
653
663
652
632
598
592
623
662
693
745
801
812
765
705
638
588
569
600
666
731
772
770
725
659
572
519
524
569
626
677
713
724
709
663
628
632
669
688
684
718
768
772
739
685
629
620
685
783
883
979
1023
1023
1023
1000
938
874
848
845
831
820
824
826
790
721
653
625
629
656
683
713
725
723
714
683
639
618
630
652
679
714
721
726
732
724
693
671
685
736
781
814
817
781
731
691
652
636
648
669
713
782
830
828
785
737
696
687
711
739
762
777
777
765
749
723
679
655
653
673
696
746
773
756
724
717
716
740
754
763
782
804
823
808
759
719
683
660
660
676
714
766
823
848
836
802
736
675
662
689
727
785
826
822
794
761
717
703
741
784
825
860
874
847
803
736
666
641
658
695
739
791
820
820
790
752
711
715
744
780
814
837
853
843
824
806
767
727
721
734
760
806
836
820
783
747
708
681
711
753
777
800
814
774
720
675
632
615
620
629
637
674
712
701
652
603
562
550
557
575
586
602
622
625
594
557
513
489
500
538
581
643
687
678
615
535
465
433
441
471
503
550
593
596
564
537
494
480
513
553
576
604
616
595
573
550
518
504
511
532
563
604
619
613
604
585
542
510
512
535
563
609
675
713
688
620
531
476
471
497
562
644
691
674
612
541
482
475
503
558
611
661
673
649
615
591
555
521
528
566
628
677
683
651
618
578
527
489
499
543
596
658
693
684
641
584
522
488
510
566
624
681
724
725
682
630
557
508
519
555
595
642
659
645
601
556
514
485
518
581
633
660
658
643
621
591
541
513
540
609
661
694
707
679
645
622
572
519
527
567
612
663
699
680
634
588
534
493
499
533
575
625
665
673
633
582
559
541
539
560
600
655
695
695
669
627
557
520
535
566
596
636
668
686
686
649
571
513
513
542
578
628
662
661
640
612
588
563
543
557
593
642
681
680
650
603
542
508
532
578
612
644
652
639
617
586
541
516
520
546
582
636
687
694
672
633
573
535
547
580
622
676
711
704
663
622
583
527
500
520
563
635
690
702
663
604
556
537
554
579
594
628
656
650
625
601
564
552
559
578
607
655
674
636
588
565
548
509
506
543
581
629
673
670
640
602
559
533
538
549
562
605
638
643
627
605
563
526
543
600
652
676
694
686
652
617
567
516
509
524
555
607
644
627
587
558
522
508
518
558
603
650
676
653
613
579
538
509
523
564
609
659
686
690
681
648
586
532
519
538
569
607
643
643
612
590
553
517
509
533
568
613
647
645
628
597
544
500
520
566
633
698
729
712
681
654
592
537
537
568
611
663
696
690
656
625
581
527
526
565
602
626
627
605
583
556
507
473
467
491
533
591
645
654
625
593
554
531
544
568
599
657
711
750
771
775
764
778
819
868
896
902
877
804
717
637
568
529
535
544
518
487
490
485
469
453
426
406
422
448
487
550
604
607
576
545
505
470
468
489
516
541
561
579
581
564
514
471
468
479
497
548
598
616
606
566
501
455
463
494
517
547
587
595
566
525
469
438
446
488
539
601
626
608
587
578
550
519
514
527
565
627
672
653
607
565
501
448
447
481
526
575
614
614
587
562
523
495
507
523
566
603
638
642
599
554
506
475
489
519
560
613
657
671
648
604
545
503
509
546
588
640
683
691
663
628
598
572
551
559
587
648
677
671
664
641
599
564
557
565
584
630
676
690
666
641
592
541
525
539
577
631
664
655
629
609
569
525
513
534
555
581
593
581
549
510
460
407
378
390
426
461
489
503
484
449
408
372
373
393
410
434
459
436
407
408
396
385
407
435
452
464
484
491
470
427
384
356
363
401
448
481
510
504
468
437
398
356
352
376
408
462
510
528
513
474
410
357
363
405
443
489
533
544
536
509
451
400
399
431
472
524
550
543
527
509
476
460
464
481
509
546
565
552
521
494
455
424
436
459
491
527
551
554
537
504
446
418
428
455
500
554
586
576
536
480
433
397
400
443
492
554
606
608
559
512
459
420
421
464
504
551
578
575
552
519
461
407
399
421
457
504
539
539
526
498
450
414
420
462
502
542
576
560
529
499
463
440
444
460
480
517
546
552
536
507
472
439
420
431
470
522
572
578
545
501
449
412
422
442
472
526
559
550
525
497
442
401
409
443
478
518
550
551
527
490
466
441
451
472
495
533
580
580
537
487
436
406
426
475
527
573
597
587
547
508
462
423
417
435
476
534
585
580
538
507
469
445
453
485
534
572
585
574
545
518
483
467
462
478
489
531
585
606
600
565
500
440
417
446
501
556
594
593
542
480
424
396
393
432
497
557
602
615
583
534
474
416
398
437
504
573
618
627
607
570
518
474
474
505
538
582
605
587
556
525
489
456
447
463
513
575
608
597
565
538
499
441
413
427
475
548
610
619
602
586
547
482
448
463
495
550
589
576
537
503
473
457
471
513
560
602
639
637
607
560
496
453
458
500
547
583
605
600
568
525
473
445
454
486
541
595
639
648
600
528
473
433
433
467
519
597
667
672
629
566
493
447
444
472
515
566
612
611
573
534
488
449
441
464
508
560
603
603
581
568
527
464
428
441
486
543
580
586
548
516
499
499
541
611
705
807
886
901
855
769
666
597
578
546
496
473
481
489
471
439
409
391
400
421
452
496
536
542
505
467
435
399
389
401
437
495
550
559
527
488
435
393
395
420
459
508
549
554
524
483
444
418
420
448
478
510
547
555
521
488
447
404
403
437
481
539
575
571
560
553
502
436
417
438
473
536
585
575
529
500
465
437
444
471
500
540
572
582
565
532
488
454
462
486
505
553
602
606
585
555
512
467
454
471
503
553
600
611
582
542
492
455
465
509
546
584
617
613
588
567
537
513
519
553
582
611
646
655
637
607
566
525
497
499
536
591
653
682
662
626
579
531
526
557
597
647
694
701
663
610
557
497
466
480
518
577
627
630
598
559
502
437
408
423
461
498
507
497
471
436
402
381
390
428
482
535
569
544
474
400
347
315
317
347
384
438
474
471
453
427
394
352
329
338
381
458
516
528
513
470
399
345
343
373
419
473
523
541
528
489
442
411
401
417
446
484
533
557
528
471
411
371
380
428
481
523
528
523
501
465
408
363
366
403
458
524
556
551
524
497
462
434
434
460
491
532
572
583
563
522
471
427
414
428
451
495
557
594
584
556
518
468
446
452
484
520
548
553
537
507
449
396
395
433
466
511
562
594
591
559
511
469
449
456
481
520
564
580
545
497
446
398
398
447
508
564
605
612
592
551
482
420
404
434
475
527
586
593
562
528
482
438
439
481
510
533
561
573
567
543
490
439
434
460
498
565
618
615
572
525
465
413
404
438
486
541
578
574
538
500
463
438
450
483
532
584
619
619
587
548
487
426
407
434
483
531
579
593
570
533
489
455
439
440
465
530
597
613
582
549
515
468
442
449
471
501
549
588
574
514
460
433
436
469
507
543
576
573
530
481
437
414
423
450
508
574
617
602
560
515
462
416
414
447
476
508
545
552
518
483
446
423
430
449
481
533
593
609
599
580
525
462
446
456
475
515
562
569
534
506
485
456
446
468
493
535
583
577
526
482
437
401
404
440
486
539
588
599
571
539
494
437
417
445
474
520
581
598
596
587
526
449
425
440
477
512
546
563
564
537
485
441
423
433
468
528
567
573
549
514
482
455
452
464
486
523
562
575
561
540
504
469
470
501
541
582
607
599
565
519
464
426
426
466
523
590
650
654
587
503
451
432
409
425
478
560
639
647
599
537
473
416
404
433
478
527
561
562
534
507
470
430
414
433
471
541
595
597
569
522
478
471
522
600
696
792
873
910
890
823
720
614
564
555
534
534
551
535
495
455
411
378
384
424
461
506
565
594
554
476
409
375
391
433
485
538
582
592
559
502
440
389
391
420
443
473
513
529
500
453
406
369
365
403
449
501
547
557
535
498
464
431
438
482
524
564
608
602
561
520
489
448
433
468
504
535
563
563
552
543
529
490
460
480
524
569
604
607
578
551
519
472
454
469
496
548
605
615
582
543
508
475
468
496
541
581
609
618
598
560
515
453
427
449
501
583
647
657
630
582
538
521
534
558
599
667
729
721
683
639
588
537
520
535
563
604
649
657
638
613
570
522
509
535
593
655
697
690
644
600
545
498
494
512
538
584
625
612
559
513
475
427
427
465
492
529
568
569
524
461
406
363
348
358
388
434
483
499
490
459
406
354
327
340
388
463
527
543
510
439
361
294
281
330
389
438
495
510
482
462
436
378
338
338
366
423
493
516
503
471
428
390
375
388
418
467
524
543
524
482
430
390
389
412
443
489
543
553
521
472
414
383
385
410
449
507
568
602
602
579
519
441
397
405
448
514
576
588
562
517
452
394
386
425
471
509
553
577
561
520
466
411
378
401
443
479
543
569
550
517
475
438
424
426
454
509
565
582
562
522
467
427
420
447
489
535
556
537
521
498
442
395
397
433
477
531
589
603
568
512
445
395
392
426
471
502
543
558
531
479
424
392
400
432
473
522
585
610
591
550
493
440
420
427
456
505
570
602
587
550
489
417
392
417
474
533
594
605
568
514
448
392
379
413
466
518
549
567
557
527
474
420
422
464
502
531
568
577
546
507
473
435
416
434
469
521
578
590
565
534
478
404
387
443
514
573
627
635
584
521
454
389
365
397
461
529
589
599
564
533
488
437
420
444
498
567
620
625
590
544
489
424
392
412
466
540
599
625
595
544
494
464
466
463
488
547
602
621
583
519
463
428
427
456
500
549
591
600
572
541
502
459
444
450
478
528
587
607
589
551
520
483
462
468
487
538
596
605
568
529
493
458
452
471
501
553
627
659
629
561
492
432
413
434
480
534
596
626
603
554
505
460
446
472
509
553
606
625
593
555
514
464
450
475
513
566
623
632
607
575
532
484
455
473
525
579
629
625
583
534
472
410
400
431
479
533
582
592
574
532
472
425
409
421
460
519
584
606
580
533
484
438
440
481
523
545
568
562
532
507
508
509
544
610
688
770
846
888
879
831
749
637
565
536
525
525
546
533
480
421
356
298
293
335
370
419
478
508
510
496
460
409
414
461
497
540
579
573
531
509
473
429
409
425
470
507
547
562
541
500
457
403
397
432
467
492
531
558
556
534
491
434
414
430
463
522
592
618
584
533
479
436
427
436
455
499
558
582
568
549
512
457
450
479
518
560
593
609
602
558
496
440
427
460
504
560
615
632
612
576
520
458
437
469
519
565
622
656
639
604
552
495
476
498
537
573
603
619
615
608
575
523
508
544
587
628
673
675
652
618
554
514
514
523
534
564
607
625
620
600
568
524
516
542
571
607
653
670
642
608
562
502
470
480
506
541
586
594
558
508
458
423
415
415
431
477
530
540
510
461
400
338
329
358
399
446
505
513
463
401
339
289
274
290
325
372
433
467
459
440
414
371
338
324
351
394
453
491
472
433
406
364
357
386
419
468
517
538
538
513
449
371
341
363
393
431
484
514
499
464
427
383
371
388
417
455
510
535
514
469
431
392
382
408
444
485
530
562
546
512
480
433
413
451
520
559
567
555
532
503
466
413
388
421
475
529
584
608
575
526
472
412
385
421
477
506
531
543
526
492
445
395
383
426
480
526
562
573
538
487
441
389
372
390
434
493
567
596
584
548
487
420
379
401
456
499
546
588
577
539
485
424
388
395
434
493
565
596
575
530
460
390
377
418
469
526
575
584
555
513
462
411
401
431
464
515
576
602
586
537
470
408
383
399
443
510
570
573
546
514
474
444
438
450
469
503
565
594
583
551
494
428
386
395
458
530
584
611
604
570
508
440
411
422
454
494
549
584
578
547
499
450
425
453
500
541
582
606
584
539
472
390
352
376
441
506
569
597
576
533
489
447
439
467
493
529
573
595
581
548
501
443
421
446
488
539
583
599
573
538
484
406
382
416
469
519
573
602
585
545
493
440
423
454
485
505
536
567
563
524
479
434
424
450
494
535
585
608
581
535
488
431
411
439
484
540
606
623
596
560
510
451
432
452
468
501
564
610
597
542
472
402
381
426
486
543
616
643
605
540
484
442
423
433
450
470
518
569
578
567
527
477
448
455
496
542
596
629
621
587
542
491
461
460
494
546
595
623
617
566
500
441
416
428
456
494
552
579
554
506
455
408
396
418
452
484
537
565
545
508
463
405
381
419
488
568
662
739
781
797
788
739
699
685
675
674
677
651
597
527
459
382
339
348
383
437
484
502
489
460
425
387
388
423
483
521
536
540
522
489
437
374
342
370
411
458
514
546
533
488
438
387
375
421
479
524
565
572
542
509
470
415
396
420
466
530
600
625
597
541
496
447
427
448
492
542
600
628
597
539
473
419
410
453
495
541
592
614
593
567
536
485
454
465
498
530
581
604
581
536
484
438
429
469
524
572
630
672
669
622
561
493
466
488
529
569
629
660
650
617
567
516
495
509
555
621
688
707
678
629
578
528
520
541
577
618
668
702
699
670
619
540
501
523
555
592
658
700
689
642
596
541
502
507
542
592
649
669
639
583
525
466
434
445
484
540
604
629
608
577
516
423
371
380
404
438
493
525
509
461
408
346
323
345
388
443
510
549
529
484
423
353
332
353
390
437
495
521
500
461
403
341
327
365
422
475
531
560
557
531
477
407
366
371
402
450
522
577
582
530
459
389
363
395
455
512
559
572
543
507
462
404
375
389
429
474
533
571
571
540
510
452
412
426
469
527
589
624
597
541
483
422
400
417
467
519
566
579
546
505
468
420
392
398
427
484
570
625
615
576
530
450
390
397
440
486
554
601
594
560
499
420
384
392
437
506
577
605
572
526
497
448
433
442
463
491
542
590
578
520
456
396
373
401
457
503
556
589
572
537
496
442
400
411
448
496
560
593
567
518
472
411
379
400
443
501
587
638
616
577
526
449
402
403
431
484
556
583
558
514
474
415
379
393
436
492
562
602
579
533
492
452
427
437
463
492
546
592
588
529
462
405
372
386
435
489
571
619
616
583
514
424
378
389
438
514
596
629
610
559
495
434
402
419
457
507
565
595
575
548
511
441
409
432
469
507
576
613
590
526
467
422
411
421
460
508
561
608
607
565
520
475
454
462
501
549
592
608
585
544
498
425
382
411
458
501
559
608
619
583
535
466
431
438
475
523
589
618
592
547
491
429
391
403
455
516
591
633
635
589
528
462
431
447
492
545
603
624
608
565
506
442
416
445
495
524
584
639
642
602
547
481
435
428
462
496
561
587
569
540
517
481
450
460
504
562
624
655
645
611
565
505
492
504
525
540
578
609
601
554
505
462
440
455
497
543
586
608
592
540
473
404
378
409
455
504
571
604
586
540
497
450
414
419
459
525
611
669
682
662
633
614
641
707
782
856
908
898
839
755
664
547
455
412
401
413
458
495
495
475
456
409
387
390
418
464
529
572
568
547
507
444
401
399
426
472
546
583
578
551
509
442
397
391
422
482
565
595
573
529
473
414
384
402
453
505
561
592
589
577
548
486
430
418
449
496
559
596
584
544
506
463
441
455
480
520
585
626
638
624
574
502
447
429
447
489
547
588
586
561
526
471
431
443
495
555
621
670
660
600
544
484
450
447
484
550
618
666
662
622
568
500
455
461
512
554
602
635
638
626
586
524
487
492
531
599
660
681
669
641
607
556
510
514
554
607
676
719
718
670
608
524
467
473
519
582
655
705
694
647
589
521
476
470
488
519
564
588
559
514
467
385
358
377
405
441
494
534
532
496
445
376
338
344
385
439
493
531
523
480
406
337
309
335
375
424
473
515
530
494
443
390
344
342
392
437
474
496
485
461
420
365
333
347
391
438
496
538
530
487
436
387
365
385
440
503
557
581
554
505
450
381
360
391
438
483
539
574
572
540
494
432
400
404
433
461
504
547
552
533
482
427
400
404
430
468
528
570
576
558
507
434
391
403
444
493
551
586
578
543
509
463
426
428
462
507
560
589
577
539
489
422
382
400
446
493
553
589
592
553
485
421
409
435
477
508
551
587
587
546
501
449
424
434
467
511
554
578
570
532
485
432
405
422
459
505
564
604
607
565
504
444
415
425
465
515
567
607
601
557
504
450
425
441
470
497
539
562
563
539
491
432
394
399
440
502
566
608
599
553
499
436
405
421
466
512
561
596
590
555
503
436
386
399
443
494
561
609
610
575
530
472
441
440
465
511
576
620
612
581
544
471
422
423
450
500
554
582
582
540
488
434
403
418
463
516
573
604
591
559
523
467
431
432
456
504
574
620
619
583
528
449
396
412
470
536
590
609
582
538
503
464
440
434
446
485
564
637
658
605
531
454
412
424
464
514
573
620
615
580
524
461
421
431
462
504
552
589
587
558
525
478
446
452
478
505
549
583
585
567
529
483
459
466
489
527
580
618
619
582
530
472
444
462
501
538
587
625
626
582
536
474
430
428
459
507
577
623
611
560
509
445
390
380
412
468
535
592
602
558
503
448
404
404
439
491
577
647
655
646
645
647
664
706
767
830
890
906
855
761
660
548
455
422
422
427
457
467
457
429
416
404
392
394
416
447
496
542
546
506
453
395
369
397
452
502
558
593
590
531
461
407
382
406
452
494
539
568
560
529
504
466
422
414
455
514
567
598
595
565
519
453
409
411
447
497
563
612
607
573
530
475
437
433
469
511
557
592
603
582
541
477
421
420
455
504
563
615
622
582
524
477
450
450
473
516
575
623
624
599
568
498
451
447
472
531
604
631
608
582
564
527
491
496
527
580
643
678
669
618
553
485
447
467
519
562
624
676
677
644
606
551
509
506
539
583
645
691
683
644
602
555
510
519
556
597
639
669
677
649
591
513
460
456
477
509
550
593
591
540
472
391
334
353
416
474
530
570
551
493
447
390
342
341
372
414
461
496
498
476
441
376
322
314
338
381
438
500
517
492
445
371
325
333
375
427
487
529
518
464
416
369
335
344
385
433
481
520
538
503
436
372
338
352
403
469
521
546
536
498
458
415
383
403
436
474
518
555
548
509
464
427
401
409
441
483
536
572
562
524
477
420
382
396
442
482
534
580
587
558
526
472
426
422
446
477
527
570
578
567
545
464
396
382
402
443
501
563
586
577
543
476
423
420
446
480
532
575
570
529
495
448
409
420
457
484
526
571
583
562
529
476
437
426
447
504
561
576
554
524
498
449
404
405
430
462
512
555
557
527
492
437
379
384
430
478
523
566
570
541
516
472
426
414
444
493
551
591
592
550
497
449
416
430
471
508
552
582
572
541
486
414
369
387
443
504
570
615
603
552
496
437
394
396
430
478
548
608
623
595
549
500
454
433
452
487
535
583
595
561
514
457
409
414
455
500
554
589
577
543
496
442
404
405
439
479
537
589
595
578
549
501
448
424
439
483
552
608
612
566
507
462
421
415
441
479
538
594
603
580
537
478
423
399
431
495
565
604
603
574
537
475
414
406
431
467
536
586
598
578
522
461
432
430
459
502
561
599
579
538
492
432
388
403
457
505
553
599
605
577
549
508
483
483
505
559
609
640
634
593
532
475
440
457
510
554
593
623
595
547
502
455
409
400
439
486
543
581
566
525
481
440
405
405
436
473
535
592
595
550
494
444
418
421
457
498
559
620
654
675
696
696
705
751
794
826
854
861
814
719
607
489
392
352
364
393
429
471
497
489
470
435
392
374
388
423
486
546
544
506
476
439
406
405
433
476
533
590
596
558
504
443
388
367
394
444
509
569
596
577
538
474
408
391
425
474
530
583
593
562
516
468
429
427
462
505
558
589
578
549
513
477
440
424
444
495
555
603
604
571
538
485
432
436
472
496
526
561
569
561
529
475
423
413
448
501
563
603
611
599
545
497
470
478
509
556
623
672
666
616
567
509
453
445
491
548
618
668
676
652
600
540
507
503
522
564
617
673
687
667
621
557
497
487
519
557
612
662
678
671
628
569
520
491
509
548
601
647
660
642
599
542
488
469
486
503
529
571
581
545
496
437
384
380
416
464
519
552
534
490
435
362
309
323
371
411
455
495
497
460
416
358
314
328
378
440
501
547
540
500
444
379
342
341
367
419
483
544
554
519
477
420
356
336
361
411
476
532
540
503
454
395
360
356
393
459
540
596
583
533
476
422
368
368
414
466
521
577
588
557
499
442
402
394
425
479
528
581
599
573
527
459
403
409
459
509
566
623
608
551
487
423
369
363
413
461
512
563
594
594
561
498
438
415
435
467
527
580
594
567
533
466
402
399
438
485
528
567
572
528
485
447
410
405
435
486
559
618
624
584
536
482
437
429
457
482
521
571
586
556
516
463
418
420
457
502
549
611
625
586
527
448
379
364
388
436
501
574
617
598
541
476
433
421
444
489
537
584
588
543
481
410
348
352
402
471
553
606
594
546
498
451
417
427
472
510
552
597
603
574
534
483
430
402
415
453
505
569
604
585
531
472
416
404
437
485
529
572
583
564
537
479
432
420
447
487
525
567
578
550
521
477
421
409
437
476
528
587
597
582
557
510
457
430
443
491
535
575
590
566
537
497
438
414
425
470
533
581
601
582
542
464
396
390
431
492
561
623
622
565
509
453
395
377
412
470
535
583
594
575
550
491
431
418
447
492
546
598
611
578
523
449
398
398
428
485
564
619
613
568
527
482
426
411
440
487
555
624
642
616
568
511
465
461
485
515
551
603
628
616
571
507
450
439
468
505
548
607
635
590
522
464
425
421
443
475
521
571
587
562
523
460
402
399
444
487
540
609
631
602
557
512
482
510
581
674
775
873
930
904
839
761
668
594
566
551
558
583
579
537
487
425
366
340
356
397
471
559
591
554
501
455
408
391
410
445
504
571
582
546
502
448
399
391
404
427
480
549
583
553
511
461
397
384
408
452
521
590
603
564
514
462
419
418
444
479
540
607
626
596
549
492
442
431
448
475
523
583
607
581
529
472
422
419
453
499
541
599
643
629
569
498
450
448
482
527
579
632
645
606
555
498
459
465
501
549
600
646
645
611
574
534
480
467
498
541
580
621
633
618
590
555
510
496
531
576
627
695
719
687
636
578
522
523
558
587
623
675
704
688
648
593
524
497
528
578
644
711
722
665
607
551
492
474
498
533
568
614
627
588
539
466
402
383
411
458
498
541
549
514
461
405
344
322
343
384
444
507
517
480
437
380
311
284
306
357
418
480
491
441
383
320
265
253
272
306
366
435
451
419
379
323
274
272
310
366
422
485
523
505
452
374
295
265
294
365
453
536
572
563
518
441
359
329
356
403
463
533
557
525
471
404
329
299
333
397
471
548
575
526
445
359
272
237
271
334
407
495
542
521
470
389
302
273
308
379
467
555
587
555
487
398
303
278
309
362
432
513
543
500
442
379
308
293
341
409
497
597
637
599
526
444
353
322
367
439
521
608
637
597
528
434
328
290
317
404
522
631
655
602
519
409
282
227
261
357
469
586
627
583
504
402
291
245
282
356
457
581
628
582
498
399
304
269
304
385
501
621
654
602
523
428
326
287
332
408
496
598
638
603
526
433
337
316
354
409
488
577
607
577
515
428
308
260
306
399
501
604
645
619
541
446
331
286
335
414
503
606
645
596
506
420
326
289
335
417
524
645
687
642
561
461
345
290
316
397
506
620
661
611
537
457
368
335
374
442
533
634
669
625
550
469
373
339
366
429
518
612
656
628
558
465
373
345
358
405
490
604
652
614
544
464
361
317
356
444
543
629
659
633
565
471
354
311
360
447
547
655
704
669
597
519
409
353
393
467
546
640
684
658
609
533
426
367
372
440
538
653
696
664
599
513
401
349
394
473
555
658
707
677
597
496
399
380
435
510
589
685
735
713
644
557
455
410
441
509
600
705
742
697
616
507
389
339
380
453
537
651
713
676
590
497
397
365
404
468
546
651
701
669
612
544
458
450
526
656
785
903
985
985
922
812
657
552
551
597
646
690
687
615
498
380
277
255
303
386
483
593
655
629
559
475
367
313
356
438
538
657
717
688
617
514
386
325
354
431
525
644
716
687
610
513
389
332
382
485
588
697
743
693
599
497
388
338
393
486
584
694
739
692
612
532
430
381
417
500
584
688
747
719
661
569
442
370
397
478
577
698
748
715
631
537
432
382
429
528
628
731
769
728
647
551
452
407
433
510
611
723
785
767
679
576
465
423
463
544
633
749
811
792
720
614
494
430
456
523
605
712
776
769
714
626
517
473
494
554
644
756
817
799
740
660
540
466
494
580
682
783
821
771
672
564
451
406
443
509
593
702
753
698
598
503
407
357
368
430
518
614
666
624
554
466
350
298
332
394
465
563
607
566
498
420
323
272
302
375
469
586
640
604
537
452
337
275
291
358
452
576
646
625
539
439
336
287
318
404
503
617
686
656
573
483
367
284
289
358
449
556
632
635
591
512
391
317
328
395
475
588
662
651
579
492
395
342
363
443
531
625
670
646
581
512
410
348
376
451
532
646
695
656
585
509
407
347
366
432
524
654
713
666
577
479
396
362
400
476
550
643
695
669
603
518
418
363
375
436
527
635
694
661
584
500
399
341
357
435
548
652
701
663
585
495
403
356
386
444
527
644
702
673
598
516
402
322
338
423
529
650
702
674
610
533
432
367
393
469
554
644
687
667
615
551
438
367
378
446
524
608
645
628
590
528
431
382
411
486
569
665
717
687
602
495
380
326
362
438
526
625
687
689
640
547
446
387
389
441
525
619
676
653
572
490
396
331
337
406
497
608
680
673
605
521
413
354
395
462
521
611
671
644
580
509
405
348
389
462
544
663
747
740
647
532
417
347
364
436
527
639
713
689
614
541
445
380
369
397
471
594
667
650
585
504
402
334
352
424
517
632
684
647
570
495
399
343
355
428
520
632
703
689
612
515
401
345
380
465
540
628
686
674
620
530
411
340
366
438
519
639
705
664
576
504
416
352
366
422
493
596
657
650
606
531
419
352
365
424
496
591
671
670
624
555
450
393
409
461
534
624
684
672
606
524
424
361
383
455
539
651
710
692
630
546
431
360
370
439
524
637
708
677
606
524
436
391
417
490
561
639
690
662
602
518
418
364
391
463
538
625
693
694
637
560
457
386
390
449
531
623
681
661
603
532
441
369
358
407
487
588
650
630
572
499
405
351
382
459
535
636
734
760
730
666
586
572
637
715
775
848
865
804
706
608
489
396
367
388
445
540
605
602
555
487
388
324
338
399
466
554
629
620
556
483
389
330
331
374
455
568
637
622
566
499
412
345
357
429
512
599
649
627
566
504
420
351
348
394
464
576
663
655
587
501
397
327
344
423
518
631
696
673
612
545
450
380
391
462
544
646
713
697
626
543
436
367
377
426
492
581
646
644
595
542
459
384
371
427
509
623
705
697
626
560
481
418
405
443
518
632
710
703
647
585
491
436
449
510
589
677
735
735
690
615
521
460
474
537
619
718
768
750
689
604
482
401
416
476
553
648
715
717
669
617
532
451
430
459
527
654
748
735
653
567
458
368
356
395
449
543
621
621
557
464
348
269
270
329
415
527
608
602
536
452
350
273
269
328
413
529
611
586
504
427
315
218
217
283
376
498
587
596
553
492
405
318
269
296
366
473
571
589
535
464
367
291
302
364
437
547
629
631
574
492
381
300
305
369
460
572
650
646
577
494
389
319
336
401
474
586
680
673
591
502
394
291
264
317
416
545
628
618
567
501
396
318
315
362
438
540
624
630
568
485
394
326
329
408
510
630
712
685
599
501
387
303
298
361
471
606
696
691
611
513
400
319
309
377
473
594
672
653
572
484
395
314
311
384
487
602
676
667
598
505
398
323
337
398
473
600
700
697
626
537
423
334
321
375
462
586
671
665
604
529
432
348
340
407
501
604
682
685
614
521
403
307
305
375
468
592
681
690
633
539
431
334
324
407
502
610
700
714
652
537
408
309
321
408
498
613
705
713
651
563
442
352
350
420
500
594
678
681
608
525
421
331
321
376
469
597
696
701
645
572
462
362
340
374
451
575
680
691
625
536
439
358
365
424
490
591
680
687
632
553
428
318
308
377
475
593
698
713
661
579
460
355
339
396
478
580
659
678
637
572
453
339
320
395
485
589
671
690
632
542
443
365
374
442
515
613
692
688
620
537
438
350
340
402
492
606
706
724
645
551
451
349
332
394
479
595
702
708
640
545
426
339
346
413
498
611
702
706
639
558
436
326
312
371
455
570
672
690
635
547
432
337
336
409
502
631
726
722
648
559
439
350
356
419
495
595
685
702
645
562
452
360
348
408
499
618
722
734
663
572
463
369
360
421
504
621
720
726
659
576
477
389
376
434
514
619
716
739
687
598
493
400
371
409
478
581
674
683
619
522
410
311
291
357
441
552
668
706
660
570
439
327
306
356
439
557
688
770
781
744
672
612
626
710
790
869
942
923
805
656
483
327
288
340
409
492
572
590
540
469
372
266
238
295
385
504
608
631
577
496
385
279
256
319
411
529
638
664
614
533
414
321
306
349
418
515
617
641
577
502
416
344
334
380
461
569
671
700
640
543
420
306
284
357
456
565
659
677
618
531
426
338
331
390
462
576
680
711
655
563
447
350
345
404
483
584
683
704
645
570
468
376
364
419
507
621
726
728
660
572
460
358
345
412
497
608
714
734
679
593
479
374
351
409
496
606
707
729
672
598
513
441
439
497
566
661
755
775
733
658
547
448
441
491
559
664
760
767
722
658
552
445
414
459
529
628
726
764
719
634
505
376
346
397
461
550
635
649
616
546
428
310
266
306
388
506
625
645
568
466
357
269
263
312
377
476
582
610
547
449
324
217
212
284
374
483
590
622
577
490
370
248
207
257
351
480
605
643
585
477
356
258
252
322
402
498
600
622
572
493
387
287
273
329
407
504
606
640
604
538
430
313
274
323
399
499
607
644
612
533
419
312
290
355
439
538
643
688
654
566
437
310
282
348
447
554
657
673
610
521
410
297
273
336
428
544
656
681
620
525
408
308
304
373
455
556
654
681
628
545
437
331
315
378
454
571
700
726
650
552
442
332
306
373
456
549
657
701
656
573
463
353
334
384
460
563
674
707
651
561
451
353
326
366
433
531
644
685
637
553
447
349
328
383
464
569
673
705
657
578
474
367
338
388
454
548
653
674
615
542
467
374
333
378
454
556
660
687
631
545
448
359
350
388
446
537
645
672
619
542
448
345
313
360
440
546
666
713
663
566
454
344
319
373
452
556
656
688
647
578
488
381
341
371
439
537
655
705
663
575
466
351
312
354
433
539
647
692
658
570
459
355
321
365
448
566
680
717
668
579
480
374
335
375
441
540
653
686
633
550
443
327
291
348
443
553
668
697
661
591
475
351
321
368
451
574
692
720
668
581
479
363
326
379
462
568
682
715
653
557
461
357
330
360
426
545
662
698
649
568
470
359
326
374
459
577
689
706
635
537
433
328
295
335
403
516
650
693
658
578
468
361
326
369
448
551
675
733
693
604
504
379
320
352
436
544
671
720
670
584
485
378
340
384
461
562
674
719
673
591
477
343
288
336
421
523
638
687
637
545
453
352
314
354
421
507
621
668
630
566
487
380
326
352
431
539
669
746
749
717
651
575
569
649
762
883
974
958
851
729
605
456
370
353
383
445
538
566
516
439
353
270
261
327
419
518
625
665
628
549
448
331
283
320
415
530
652
696
652
565
472
371
332
370
452
557
659
704
667
576
472
365
319
362
441
544
666
727
696
607
490
374
333
379
459
552
649
680
646
581
502
396
350
387
459
553
664
717
678
588
490
388
343
381
454
556
672
719
693
616
517
412
364
396
467
555
656
702
670
603
507
386
346
397
496
599
706
746
701
631
554
443
382
412
489
600
725
771
719
641
556
445
397
443
539
642
750
787
744
659
553
446
414
472
562
640
737
779
732
655
576
469
418
451
514
604
716
759
725
652
552
434
385
402
454
539
641
667
632
565
476
372
314
338
401
483
596
657
621
521
410
309
261
289
361
455
547
579
530
450
350
239
199
240
316
409
531
597
570
492
397
292
248
292
365
446
537
587
552
471
379
283
247
291
376
479
605
658
625
541
440
336
293
322
390
471
570
632
615
542
453
342
280
297
357
452
583
659
657
583
467
339
285
312
386
487
613
673
638
563
472
362
305
331
403
497
624
686
654
579
487
366
295
322
393
481
595
646
615
560
479
364
306
334
411
506
619
685
654
575
493
388
336
378
451
527
620
669
627
545
446
340
306
352
431
514
617
673
638
557
474
367
311
337
421
529
643
700
671
582
474
357
302
341
412
503
607
663
642
573
484
371
319
354
436
534
655
724
683
591
484
368
318
361
445
532
632
687
654
571
478
369
316
343
400
482
602
660
630
555
473
372
323
361
453
561
675
732
705
618
501
370
299
319
407
511
630
695
663
581
491
385
338
382
470
565
676
740
706
612
496
359
288
321
405
506
631
694
653
581
500
388
321
345
418
529
654
709
666
580
483
364
301
339
428
522
628
688
661
582
485
367
304
335
421
522
642
702
681
592
468
346
294
329
409
499
608
674
662
583
495
392
326
339
410
504
615
679
664
592
502
399
346
372
449
538
633
687
672
599
496
375
317
345
406
484
588
666
655
592
510
400
336
355
427
523
639
693
651
561
471
374
323
351
422
503
615
682
653
582
491
377
315
344
432
544
660
728
711
631
530
410
338
358
430
528
651
722
704
636
548
427
355
375
440
523
644
722
700
619
522
401
325
334
394
481
601
685
671
594
509
394
311
317
382
476
593
667
658
581
491
385
321
352
435
530
660
757
773
743
706
638
599
626
692
776
870
900
824
692
552
397
285
284
350
441
581
662
614
521
430
321
271
308
387
479
583
650
636
562
467
344
265
282
354
446
580
666
655
581
486
366
292
308
386
490
613
696
683
599
493
367
288
299
373
482
618
698
684
609
511
397
343
363
418
491
594
691
705
633
530
399
314
323
387
471
596
686
682
616
528
406
326
349
433
534
657
731
719
659
574
458
376
388
454
544
669
758
747
666
563
447
375
404
501
600
719
796
785
713
618
492
409
407
482
598
735
807
765
685
602
487
414
425
495
598
736
828
825
749
657
537
457
464
525
608
734
825
816
738
638
513
436
456
534
615
717
795
784
705
588
450
360
366
441
540
660
732
704
625
525
399
303
311
383
471
581
650
636
567
481
368
285
292
359
440
562
646
639
560
454
302
200
208
290
401
538
628
621
555
464
340
254
264
342
447
584
685
678
592
492
358
266
274
340
429
564
669
656
553
439
319
249
277
361
466
611
703
682
603
501
364
267
273
349
449
588
704
723
647
538
404
301
300
370
466
615
737
743
659
543
399
283
276
356
467
605
711
715
644
535
386
277
278
356
480
636
735
721
637
533
386
278
278
351
452
591
698
698
630
530
380
273
284
379
483
606
710
713
623
512
389
294
294
364
463
607
714
718
637
522
387
293
306
382
479
608
710
707
624
510
372
279
283
358
462
606
720
716
626
517
379
276
272
353
466
603
704
699
616
514
372
258
248
318
419
563
688
709
638
532
392
289
292
381
496
640
746
749
664
532
373
264
270
359
478
634
762
771
668
537
397
296
314
406
517
660
737
702
613
501
351
240
244
333
446
586
685
689
622
519
385
295
303
376
473
605
703
700
614
502
362
250
254
346
457
604
715
724
647
522
365
244
245
342
462
611
736
744
655
537
390
271
255
324
438
587
696
696
615
519
387
254
240
331
441
589
707
714
635
529
393
268
255
345
454
596
720
733
651
533
370
251
256
329
429
581
719
737
652
535
391
276
275
359
467
607
722
728
634
524
379
258
260
359
468
589
678
692
622
509
363
253
256
349
485
639
748
749
659
537
385
269
269
345
444
582
708
734
673
571
423
300
299
385
485
622
749
779
704
579
425
295
270
348
453
593
711
714
625
508
353
227
222
313
429
570
696
716
640
540
394
259
240
313
422
581
718
749
685
608
512
447
501
639
774
926
1023
1022
895
754
552
359
296
334
414
544
649
647
556
449
332
224
207
275
376
519
646
667
603
503
365
238
216
287
390
532
665
689
608
501
368
245
225
312
418
555
684
701
621
510
380
268
248
314
427
575
695
710
636
521
375
274
279
358
467
606
738
766
680
564
414
273
243
327
444
590
727
756
682
568
428
304
290
374
486
616
732
750
670
554
412
294
295
386
514
677
809
808
703
591
464
330
293
364
483
644
793
815
723
605
462
344
345
438
551
695
819
848
777
662
506
366
340
404
510
676
821
848
777
673
526
398
392
482
589
721
831
843
763
658
520
387
367
447
561
703
826
841
758
638
486
352
324
393
495
624
746
766
680
555
411
269
227
300
416
563
696
707
618
496
355
234
208
269
360
492
636
671
600
475
323
203
189
269
381
518
643
669
596
484
339
210
200
287
404
541
666
695
630
526
397
263
222
282
391
546
669
684
607
500
369
251
226
281
387
533
673
720
659
572
446
294
246
306
408
544
675
704
644
552
433
307
280
351
448
583
724
758
687
580
432
283
236
297
406
561
704
723
644
539
420
315
292
353
448
574
706
746
686
581
438
311
299
367
462
595
729
760
689
580
446
305
266
345
473
619
740
758
683
588
457
332
314
384
478
598
724
749
675
575
446
313
280
346
450
587
723
751
681
582
450
313
271
331
432
580
738
777
700
602
470
316
272
345
443
567
707
750
683
573
440
318
299
360
447
563
696
737
677
579
444
304
266
334
444
582
724
770
713
604
459
320
288
356
464
594
728
777
727
628
470
301
245
329
437
557
703
768
714
608
480
351
312
358
443
572
708
748
685
578
440
304
268
333
442
582
729
775
712
620
492
335
282
347
447
577
714
758
694
583
440
298
262
339
458
607
750
792
722
608
461
317
276
340
456
602
726
751
692
584
456
325
291
351
456
586
711
749
694
600
482
350
300
349
445
582
738
794
730
618
485
344
288
350
467
602
741
781
717
605
460
332
297
339
439
591
748
797
733
620
481
332
276
340
463
618
771
814
750
646
512
360
307
372
484
630
787
838
763
644
490
328
275
324
424
559
708
756
698
602
476
338
299
356
453
572
699
744
689
595
470
326
279
347
470
638
828
933
936
886
787
663
603
627
692
779
883
890
776
615
435
260
185
220
316
456
616
678
631
534
407
266
222
289
399
546
723
801
723
579
417
251
180
239
360
514
682
739
674
566
430
285
240
314
436
578
718
756
675
559
423
272
215
272
394
548
709
769
730
648
505
314
232
286
403
547
701
760
706
600
459
297
242
302
414
557
711
767
710
602
462
308
242
288
399
546
708
771
740
646
501
333
265
315
413
550
717
778
718
609
480
347
306
363
467
585
732
794
748
645
488
323
264
324
435
573
734
808
762
650
515
366
317
389
503
629
766
820
767
660
527
363
296
358
476
633
792
840
782
679
546
379
312
371
494
628
758
797
719
601
458
284
198
233
333
471
635
693
628
519
385
236
170
231
339
454
592
657
601
489
352
208
140
190
301
433
597
671
622
512
371
223
150
177
265
396
566
651
598
481
343
204
150
210
329
457
604
679
633
514
381
247
177
216
330
467
613
687
648
547
416
261
199
261
363
482
640
722
679
550
405
248
162
205
337
482
645
720
671
561
425
259
190
251
356
472
622
696
649
558
439
283
215
272
390
524
688
761
706
588
443
282
210
268
384
508
657
717
660
558
429
271
196
245
360
504
666
743
696
567
422
264
193
246
353
483
659
755
717
603
459
301
235
288
388
511
667
739
699
593
460
305
236
293
419
549
685
744
693
576
436
281
218
274
389
536
702
764
689
564
437
275
192
243
363
508
673
757
716
604
469
322
249
283
387
525
689
762
713
611
483
316
236
284
400
523
672
784
761
634
482
323
250
288
373
476
627
718
688
590
462
306
233
282
393
527
686
762
717
619
499
345
258
286
380
513
697
790
738
620
476
307
225
261
368
516
685
759
712
601
467
308
230
274
386
516
674
758
731
617
468
306
219
257
362
487
644
742
710
604
479
324
241
288
401
535
697
791
762
647
496
324
248
294
398
527
697
793
759
663
533
367
271
294
387
511
667
743
702
602
473
312
230
277
395
531
694
782
759
661
512
339
247
288
394
527
694
781
744
628
496
337
252
294
412
553
723
810
761
643
500
340
267
318
432
564
719
800
755
641
513
352
268
306
411
537
693
781
737
619
487
327
228
255
368
506
681
777
744
635
506
361
300
366
506
679
890
1023
1023
949
816
624
489
468
517
587
704
768
713
586
434
269
184
234
344
471
648
743
706
591
448
274
193
248
349
469
637
741
704
596
474
312
216
252
369
502
660
744
697
577
439
278
194
245
364
490
656
763
741
632
504
340
230
252
360
491
663
774
738
621
493
330
227
245
355
498
684
812
783
664
517
346
242
264
381
513
673
769
738
631
504
346
253
286
408
538
698
796
762
669
547
381
270
292
396
540
703
793
772
671
542
378
276
300
407
542
717
830
802
707
579
397
282
319
440
571
739
849
829
727
596
430
325
354
458
588
760
860
838
747
618
454
350
362
475
607
763
862
841
740
600
431
327
334
416
517
676
792
775
683
558
388
274
270
341
445
589
681
651
556
447
292
191
213
317
446
615
725
693
572
441
288
177
183
275
397
560
673
648
536
407
250
157
186
293
426
597
724
712
583
416
247
147
155
260
395
567
684
664
560
452
307
215
248
352
462
611
716
702
600
463
295
186
203
316
471
644
756
744
652
526
337
208
212
311
438
607
734
741
657
533
350
212
209
312
447
616
742
749
661
543
367
232
235
329
475
678
795
755
633
503
342
236
254
336
443
607
743
759
669
527
350
232
239
338
476
650
765
754
667
543
372
252
265
367
493
657
782
771
661
501
314
194
203
306
430
618
761
766
669
537
377
261
266
364
482
636
751
733
631
505
343
225
233
344
476
631
751
751
651
514
347
221
240
346
467
608
711
704
612
498
343
241
268
358
451
590
705
700
608
490
334
218
235
345
470
625
742
740
657
539
379
263
264
354
470
626
759
780
693
559
385
255
250
341
465
624
735
733
659
558
398
254
226
304
424
591
737
750
642
528
386
273
267
349
473
641
777
790
697
561
388
258
257
343
481
655
788
810
705
565
398
275
270
360
478
628
747
731
624
507
368
265
274
370
486
623
731
731
627
497
341
228
241
338
464
630
762
766
681
569
407
275
270
356
465
611
723
729
656
535
370
246
246
354
480
634
772
789
702
567
390
261
249
331
443
601
733
737
646
535
394
284
282
359
466
627
759
764
670
533
364
244
254
361
489
647
765
763
671
551
400
284
281
349
465
645
784
801
732
638
505
414
462
613
788
973
1023
1023
976
817
612
443
385
422
483
580
676
668
591
499
367
253
247
323
421
561
696
718
637
532
387
264
260
354
480
623
728
724
634
508
356
252
275
383
523
680
790
788
696
565
425
321
315
392
494
644
785
803
712
580
425
300
301
386
495
651
779
794
713
595
453
344
323
386
494
657
793
784
679
564
433
322
309
397
517
664
786
797
727
627
487
364
346
425
543
702
826
848
760
629
481
355
345
438
570
728
843
850
771
660
506
374
351
429
548
702
832
852
773
669
524
378
355
449
582
741
872
896
816
696
538
402
372
449
579
735
866
905
840
725
566
419
387
463
576
718
846
860
766
639
484
339
308
386
504
651
770
774
692
582
441
308
265
330
438
581
711
724
637
510
353
219
187
255
369
520
660
686
599
472
326
199
169
242
368
525
668
684
584
459
317
196
187
270
386
537
687
704
611
496
359
233
223
291
389
526
652
674
612
518
395
277
244
298
396
537
684
729
661
543
397
266
240
316
424
571
720
756
673
552
391
248
238
329
457
603
741
776
707
595
438
288
251
323
443
601
752
787
717
609
450
287
239
311
434
590
729
761
696
594
445
296
261
335
447
586
718
762
705
601
453
313
276
340
456
624
772
790
692
550
398
266
253
339
438
577
738
794
725
607
439
291
269
343
442
576
712
751
679
578
446
297
251
319
427
569
717
753
678
555
381
229
216
310
433
579
718
744
663
548
403
266
239
326
444
589
737
778
700
569
406
263
232
312
429
575
735
770
695
576
411
256
223
313
447
606
757
784
689
558
410
260
215
294
420
593
756
812
739
613
454
303
259
315
414
560
715
755
684
570
420
269
235
309
430
591
754
796
709
575
412
259
223
294
413
579
740
792
724
608
463
294
225
287
416
569
718
766
705
596
448
286
238
309
416
563
720
763
691
568
412
264
238
319
434
580
734
787
718
589
434
286
238
320
447
584
726
778
705
586
431
263
215
288
399
547
712
772
719
618
481
332
291
364
473
613
765
810
734
608
449
287
242
303
418
566
721
783
726
606
436
260
191
258
393
562
731
773
695
579
422
265
225
290
391
540
711
792
762
678
571
461
461
567
706
867
1016
1023
936
778
584
369
260
280
368
487
617
646
564
459
336
206
193
284
403
548
701
748
678
554
391
233
198
283
405
569
742
792
696
536
360
212
185
291
421
560
711
758
685
558
409
251
204
288
417
561
712
766
706
575
405
242
202
291
417
560
720
770
693
573
428
262
200
271
386
523
684
756
720
618
468
294
224
286
410
561
718
772
699
558
403
245
186
263
392
545
721
791
718
580
421
251
187
246
366
523
708
800
766
661
504
317
232
271
387
544
728
823
784
659
507
337
272
352
481
625
799
871
797
666
520
348
285
349
459
602
772
846
795
677
521
348
269
327
450
595
758
820
750
618
468
308
229
267
393
558
719
776
716
597
422
247
160
199
317
475
648
709
644
532
384
226
145
173
279
436
615
684
616
499
360
212
133
169
270
406
587
681
642
523
380
228
160
212
332
490
661
728
665
539
372
218
148
212
352
494
639
697
638
531
400
246
184
248
365
513
681
747
691
583
439
267
190
247
370
528
714
788
721
581
417
249
180
237
362
521
708
800
750
622
459
283
220
279
393
526
700
790
756
644
500
324
231
251
343
481
675
782
743
629
485
314
224
271
389
527
699
763
704
604
469
298
221
270
378
527
716
808
740
600
452
302
228
272
380
536
730
804
745
625
469
282
200
274
426
585
749
817
754
629
477
294
208
265
403
562
734
809
754
633
480
304
226
267
372
521
711
810
767
638
484
312
228
282
417
557
715
787
744
623
470
296
221
275
388
534
722
826
784
658
493
312
241
304
445
595
742
809
756
635
473
290
213
277
397
537
706
784
739
623
478
307
228
290
404
539
713
798
747
626
473
289
204
265
386
529
705
795
751
642
484
297
202
245
375
526
702
799
767
655
505
327
235
263
371
516
698
793
746
627
479
297
204
258
389
543
726
825
776
645
504
327
238
295
402
532
710
815
769
631
472
291
190
239
367
522
710
814
774
656
504
316
210
251
373
538
744
847
786
644
485
303
209
260
398
547
723
816
764
646
503
331
238
278
391
542
739
839
780
635
468
286
186
224
350
513
715
826
779
652
503
319
233
291
411
536
706
820
789
662
505
338
253
281
378
513
715
851
842
721
566
371
252
280
403
553
742
851
811
687
523
323
205
235
365
527
723
840
801
660
492
302
196
233
354
514
707
812
777
659
507
315
208
256
396
579
814
979
995
911
788
604
482
502
610
766
946
1015
927
747
561
348
212
217
323
479
691
825
802
671
504
309
192
225
365
541
752
874
839
710
543
334
203
212
335
500
715
851
814
689
546
345
212
225
348
523
746
877
834
703
542
332
208
243
363
504
696
821
801
670
498
301
187
221
346
495
698
841
826
692
516
311
187
200
322
480
697
840
827
699
526
319
197
225
357
520
733
859
823
689
504
300
190
226
365
537
752
883
830
673
497
301
186
217
365
558
784
907
854
702
513
308
186
202
336
517
756
913
890
745
576
365
225
247
383
559
787
938
918
766
578
356
218
236
366
539
769
935
917
781
608
383
233
240
359
519
740
886
860
715
526
316
187
169
272
433
658
801
766
610
429
253
150
137
241
394
619
771
733
582
404
237
141
104
204
378
602
748
729
591
419
247
147
115
207
371
607
767
753
624
439
258
153
130
242
406
627
778
758
631
469
283
167
137
234
383
609
782
768
632
458
271
160
134
231
386
606
775
779
653
469
277
164
152
272
420
632
804
805
693
539
332
196
167
278
430
643
809
806
674
496
297
175
155
268
428
649
818
824
697
527
328
194
165
266
428
662
845
835
687
516
320
189
150
253
419
643
818
833
707
529
325
192
176
292
454
686
870
863
722
540
325
192
164
280
447
667
845
857
735
562
345
203
179
293
449
662
832
835
699
534
336
198
189
303
454
691
864
849
702
531
328
194
162
273
451
687
853
839
703
530
325
192
170
274
424
650
834
854
741
576
359
212
185
298
468
686
857
852
721
561
358
211
189
298
471
686
843
847
727
551
339
200
176
295
462
677
851
859
737
572
355
210
204
308
454
674
854
862
740
578
368
217
196
314
490
711
866
857
730
577
369
218
180
297
466
699
881
888
758
583
368
217
191
294
455
681
863
881
762
599
384
226
192
295
448
664
850
865
737
575
367
217
186
289
439
658
845
858
735
570
359
213
202
322
489
715
901
913
760
552
337
199
165
277
454
700
882
883
764
604
388
231
218
336
502
719
893
900
772
601
376
222
178
292
462
680
864
882
752
573
358
211
193
309
460
632
784
795
680
527
332
196
174
300
473
698
884
922
829
712
548
403
422
567
744
957
1023
1023
928
732
472
279
196
264
399
600
778
790
660
496
308
182
159
266
422
654
856
862
708
524
320
189
144
233
380
598
791
821
700
523
324
191
159
265
420
625
820
855
726
557
366
216
173
277
439
656
841
860
738
571
363
214
169
274
435
652
839
864
736
551
345
204
177
299
462
676
864
885
760
591
380
224
182
284
449
675
871
897
772
604
392
231
190
302
463
669
856
896
808
660
455
270
234
349
520
733
924
953
830
648
419
247
208
327
489
700
892
923
803
642
449
276
248
362
535
760
952
974
863
701
501
303
254
360
537
749
931
961
848
687
481
285
229
329
487
705
909
936
813
650
444
262
197
276
422
616
804
844
741
571
361
213
153
236
372
563
753
794
688
528
329
194
123
177
315
532
764
817
693
506
310
183
120
181
337
570
792
839
708
526
330
195
128
187
327
537
753
807
693
523
325
191
132
220
379
582
776
813
702
550
360
212
149
233
379
581
784
836
741
588
388
228
156
236
393
596
799
854
750
579
376
221
168
260
414
621
816
850
738
576
371
219
152
238
403
610
838
902
779
605
400
235
170
266
418
620
835
896
799
643
434
255
181
264
413
613
819
882
790
623
406
238
166
245
393
596
812
877
764
584
376
221
162
265
440
661
862
894
777
610
403
237
159
236
391
600
821
893
799
643
436
256
187
271
424
617
809
876
790
635
419
246
168
238
401
617
838
890
781
616
410
241
171
260
431
640
840
879
764
600
403
237
171
249
393
590
790
849
758
610
413
242
162
232
390
604
824
893
794
626
428
252
174
252
402
600
818
889
794
629
426
250
167
246
416
629
845
908
820
675
471
277
188
245
381
569
780
857
783
648
461
272
189
258
406
599
809
877
780
620
421
247
184
271
414
604
816
890
806
645
453
267
174
239
392
597
824
904
814
655
452
266
189
269
425
619
822
887
793
634
444
262
188
272
429
630
836
894
800
654
479
287
211
288
431
623
819
871
774
626
427
251
170
236
382
588
809
888
803
657
490
295
183
214
341
525
751
851
782
639
462
276
233
373
580
814
1023
1023
1023
919
696
447
332
375
474
608
783
840
746
578
387
228
139
176
323
531
752
843
763
610
414
243
164
234
374
545
744
822
729
566
385
226
145
203
358
563
785
860
769
603
418
246
158
215
348
530
745
838
764
612
419
246
173
264
400
568
785
885
811
653
458
270
171
228
388
576
787
880
807
663
484
289
201
274
427
625
828
885
792
635
441
260
170
234
388
584
808
895
818
660
481
288
190
247
397
586
800
894
831
680
497
298
201
257
406
609
835
942
876
724
536
326
237
307
457
650
868
963
896
741
547
337
255
302
420
610
854
971
910
763
582
372
256
303
453
654
872
974
914
751
545
328
221
276
417
589
806
909
838
675
476
281
174
193
320
510
739
846
776
617
413
242
144
153
277
449
658
765
703
559
376
221
132
156
278
439
654
776
734
600
423
248
147
159
272
444
673
790
738
587
409
240
148
183
312
487
697
801
755
622
441
259
157
190
316
496
714
812
754
612
440
259
156
180
318
502
720
839
792
643
460
272
164
190
316
494
730
846
779
623
466
280
175
207
335
512
743
864
816
677
490
290
177
204
337
521
750
873
820
665
479
284
174
203
346
523
734
852
805
663
479
282
171
210
354
540
792
900
813
645
468
281
174
217
357
530
745
867
833
683
480
284
174
207
349
531
769
902
846
678
480
286
174
193
323
505
737
871
835
705
519
307
185
197
325
510
745
861
807
666
488
293
187
228
367
535
745
878
841
678
481
287
183
225
366
541
754
863
799
659
482
287
172
187
310
481
720
875
855
709
512
304
182
200
342
527
758
890
851
710
523
312
186
184
300
485
731
876
833
679
494
294
179
211
360
530
740
861
825
700
528
316
189
190
303
462
684
830
798
658
487
291
180
206
340
520
745
891
859
708
527
320
192
209
337
497
723
857
815
672
496
296
175
188
328
511
744
879
840
692
515
311
185
195
326
499
730
873
831
682
514
314
187
196
327
496
721
873
866
738
562
348
212
223
344
510
744
900
864
709
530
322
197
227
364
525
744
892
865
724
535
324
195
203
334
500
716
850
817
679
504
302
179
180
306
472
698
851
830
696
529
323
195
226
390
602
874
1023
1023
986
825
607
472
476
555
657
813
906
845
677
473
280
167
118
200
362
601
784
779
634
455
270
160
155
269
433
658
817
793
653
496
307
181
157
276
444
670
841
838
696
515
309
183
172
293
440
653
822
818
691
521
316
186
172
294
463
705
883
876
749
586
378
232
233
345
518
749
910
902
774
594
370
224
229
349
516
747
907
878
736
569
366
230
249
373
524
742
910
902
756
563
343
208
230
371
532
747
889
864
748
601
395
247
265
401
568
776
919
906
782
612
395
246
264
396
560
769
920
911
787
625
418
279
298
419
566
773
928
922
811
665
454
284
276
412
581
783
933
927
795
615
387
228
208
340
510
719
879
876
741
566
351
208
194
296
433
639
794
788
662
496
303
179
142
230
366
574
744
742
611
451
270
159
123
209
362
576
742
749
615
439
262
155
127
223
381
582
747
770
653
472
280
165
117
198
354
574
757
766
644
490
302
178
141
232
371
584
765
778
654
492
301
178
151
256
409
618
802
827
712
556
351
207
162
255
407
625
807
826
700
528
328
193
171
281
435
633
805
820
698
539
340
201
168
276
432
642
811
808
681
521
323
191
165
264
428
649
800
785
639
461
280
166
149
264
432
653
825
837
725
578
378
223
193
288
427
628
790
794
675
519
325
191
167
270
428
639
800
805
686
524
327
193
164
271
425
633
816
844
727
567
359
211
179
269
409
600
773
805
698
543
342
202
180
286
444
653
824
833
702
538
340
200
176
293
457
658
823
833
714
560
357
211
185
284
424
624
809
830
733
582
378
222
190
291
441
642
819
841
735
577
367
216
175
275
426
637
819
838
724
573
377
222
194
306
463
656
818
842
740
591
389
229
182
274
429
633
819
860
751
597
389
229
171
260
395
589
792
843
752
591
372
219
188
292
446
644
827
867
765
602
396
234
197
293
440
639
821
848
749
601
401
236
187
292
425
587
761
796
713
582
397
239
225
333
473
652
819
853
762
636
451
289
264
368
514
684
838
880
800
665
479
301
270
365
505
682
842
879
794
650
462
295
254
348
481
646
803
826
725
587
413
255
230
332
471
631
796
865
782
633
455
317
319
428
591
805
1019
1023
1023
915
721
539
479
524
610
730
842
825
681
514
333
198
160
247
385
569
747
784
695
575
411
258
222
302
441
621
784
822
742
604
428
276
243
322
434
596
767
832
755
612
440
277
237
313
440
602
758
806
738
609
431
261
214
286
409
583
755
810
737
605
442
280
236
304
424
607
789
827
738
615
456
302
269
359
480
627
787
830
744
631
471
308
265
336
460
646
819
863
757
611
444
277
230
307
428
595
776
839
769
652
492
321
277
347
461
631
821
883
806
660
480
299
252
359
506
665
817
858
790
686
523
344
287
388
524
697
870
894
796
665
507
353
318
409
527
666
812
842
768
654
477
300
255
341
468
620
768
807
735
602
431
269
201
253
362
509
678
722
648
529
371
218
146
202
322
481
639
662
563
445
311
183
133
196
312
453
616
687
616
485
332
195
134
195
319
488
664
722
636
485
323
190
143
210
335
491
651
707
649
538
373
219
149
200
326
485
640
693
639
529
380
229
184
262
379
516
673
742
702
613
470
303
237
277
377
525
698
761
700
577
418
250
184
247
372
532
710
781
712
600
452
275
196
245
363
527
702
775
715
593
429
255
197
266
378
527
692
756
701
597
448
297
245
306
424
580
733
789
738
639
486
314
240
304
421
556
714
773
706
596
452
289
226
273
382
549
729
777
703
591
460
303
227
278
385
525
707
789
734
606
436
261
203
270
388
548
731
803
733
604
450
287
229
300
421
563
734
795
723
594
446
282
227
290
389
538
721
795
727
598
445
275
211
272
388
553
751
826
761
620
454
284
228
289
399
553
740
817
753
619
450
273
205
269
396
557
746
838
793
660
476
286
207
263
395
544
712
785
725
603
453
277
194
247
386
561
737
803
736
604
446
277
217
292
421
559
733
801
722
588
443
278
198
247
366
522
703
790
741
624
472
289
199
251
371
528
712
794
733
608
458
289
202
250
377
545
732
811
748
623
461
276
187
244
372
529
713
798
743
609
453
279
192
220
325
490
701
815
782
667
510
325
238
292
412
563
743
833
779
647
485
300
216
268
365
484
659
755
716
607
457
273
176
218
333
475
656
746
685
560
419
254
175
228
354
524
730
837
816
728
605
448
387
468
612
776
947
1009
931
769
568
343
219
228
315
446
622
715
668
544
396
236
160
215
331
477
662
750
684
548
398
236
145
176
299
449
635
723
672
560
412
244
163
213
340
472
639
733
698
579
429
257
173
214
327
462
640
744
707
584
430
258
157
190
317
479
679
787
748
623
470
286
189
235
360
509
696
799
748
617
454
276
176
208
327
480
668
775
737
612
459
277
184
238
374
540
727
814
778
655
482
289
176
208
341
498
692
804
780
673
514
313
197
222
342
512
730
854
813
685
519
320
215
258
379
526
716
841
813
685
524
322
209
255
391
554
760
881
848
707
519
313
198
232
350
509
732
850
785
610
413
242
144
137
230
385
598
716
676
537
360
211
125
100
199
367
580
699
652
504
328
193
115
78
164
330
545
672
638
509
353
207
123
88
173
327
542
681
655
521
353
207
123
122
212
355
559
693
654
525
376
221
131
109
198
353
581
745
726
579
406
238
142
110
211
378
609
764
730
599
449
270
160
138
243
411
647
798
766
630
471
285
169
162
277
450
670
820
803
646
451
267
159
176
312
467
669
801
777
640
463
274
162
142
244
416
654
819
816
684
515
313
185
172
288
471
703
850
829
699
541
342
210
230
353
492
691
833
813
685
537
338
210
215
316
457
668
822
821
713
559
348
211
211
323
475
682
828
819
692
532
333
199
206
340
509
717
868
872
765
605
381
228
231
366
542
753
885
863
736
568
357
217
226
359
533
751
893
865
723
549
343
209
215
334
509
739
894
873
735
571
363
219
220
337
502
731
902
909
792
635
430
273
269
394
548
746
891
885
768
608
386
240
268
396
556
766
898
879
767
590
367
220
224
350
517
733
880
870
750
597
394
251
245
354
519
751
910
885
744
581
382
243
252
361
523
740
894
871
727
571
373
229
237
368
536
742
900
897
770
598
389
241
247
359
495
712
897
905
781
612
397
240
243
369
529
743
905
901
772
598
387
246
274
408
553
745
890
881
754
592
389
248
262
385
540
746
917
924
795
628
409
249
250
367
518
720
877
879
763
611
405
247
233
338
492
706
870
868
750
602
401
239
216
331
495
701
870
901
802
649
454
312
320
460
664
924
1023
1023
1023
905
676
471
410
466
570
730
855
828
688
513
310
184
135
221
381
605
790
819
710
548
342
202
171
284
447
660
831
847
731
565
356
210
190
307
464
673
855
871
747
590
385
227
193
304
474
679
836
829
707
563
368
218
196
300
460
681
845
851
747
603
409
248
228
336
490
689
854
874
757
590
383
227
204
314
469
679
863
893
780
610
396
235
213
323
470
664
839
865
756
603
398
237
223
345
507
709
865
865
743
593
406
256
257
363
522
723
884
908
814
691
495
299
260
361
510
716
907
938
826
665
449
269
250
374
543
755
935
953
831
666
451
271
248
370
543
753
925
940
820
647
423
250
226
338
489
681
846
860
731
570
374
221
192
296
443
641
809
810
682
512
315
186
133
218
362
537
696
710
586
430
264
156
119
211
358
558
742
769
657
496
309
182
127
202
345
547
744
791
691
531
330
194
130
202
355
575
776
814
699
533
335
197
142
228
390
597
786
820
702
530
333
196
143
234
403
619
804
830
695
524
334
197
160
269
428
640
841
883
761
588
378
223
174
264
414
613
803
840
739
595
402
236
180
268
411
605
795
843
746
586
380
223
164
250
404
608
804
852
756
598
395
232
168
245
382
584
805
866
775
627
423
248
193
282
438
638
817
835
718
569
383
225
169
240
382
577
776
833
740
587
390
229
176
263
416
619
815
859
762
606
403
237
181
280
435
629
823
887
788
626
425
250
210
307
431
600
786
826
727
593
413
243
187
266
407
596
781
824
725
572
381
224
183
275
421
625
824
885
793
638
442
260
195
270
407
613
833
894
796
631
425
250
187
268
400
593
810
884
784
627
439
260
185
260
410
614
821
878
779
628
431
253
173
239
367
558
778
864
793
640
434
255
191
281
424
610
821
887
785
628
446
264
195
262
399
603
823
890
790
640
450
265
182
250
396
596
806
882
793
625
428
252
187
262
407
611
819
883
798
645
451
266
187
266
422
622
831
907
816
661
478
286
213
294
430
607
812
888
806
652
451
266
187
247
370
552
753
839
780
626
416
244
159
216
349
535
750
829
759
622
445
263
181
263
426
638
869
969
925
827
681
515
475
567
707
872
1023
1023
879
683
462
273
167
199
327
512
714
784
698
548
366
215
143
208
345
524
735
820
738
581
394
231
159
208
332
522
734
817
742
597
420
247
170
243
381
553
751
827
756
620
432
254
181
251
392
582
798
868
783
637
452
267
178
243
393
580
787
861
771
618
445
273
220
317
462
632
813
867
781
640
463
274
184
240
379
586
819
910
820
649
443
260
169
229
380
568
791
894
831
672
475
282
206
271
402
575
795
904
856
716
525
317
225
290
431
615
844
959
879
706
503
299
217
302
455
636
845
951
897
751
568
360
259
316
451
624
827
931
875
733
551
335
229
283
421
604
821
914
831
673
487
290
188
237
377
548
752
843
768
613
419
246
147
157
282
468
684
787
732
580
384
225
134
129
257
451
685
799
732
577
380
223
133
156
290
454
657
764
707
562
384
225
134
149
271
444
666
785
732
590
407
239
144
174
312
491
708
807
746
592
410
241
144
150
297
501
748
869
818
656
431
253
151
170
311
493
716
816
742
593
418
246
151
201
353
529
745
853
797
641
453
268
164
196
331
509
733
850
794
655
472
279
174
212
354
531
749
855
794
642
462
274
172
206
333
514
742
859
812
671
493
293
180
212
349
536
773
897
820
641
435
256
158
206
354
526
748
867
809
656
469
277
167
198
333
502
724
855
821
678
490
291
175
206
358
541
753
869
817
666
479
284
171
191
314
491
731
864
811
661
475
280
169
178
292
463
700
838
796
644
466
277
171
195
323
499
732
872
845
690
502
302
189
206
324
486
701
821
773
623
447
266
160
182
320
503
738
872
825
674
489
289
174
195
326
501
728
859
808
642
457
270
160
175
309
493
725
847
797
663
509
309
186
201
328
508
743
878
832
678
487
289
172
181
305
485
718
856
816
669
480
284
175
211
333
486
700
841
808
662
473
280
166
172
295
471
697
829
793
658
486
289
171
173
299
469
700
848
826
678
479
282
167
162
296
467
699
851
816
663
479
284
168
170
306
491
724
863
827
680
489
290
172
170
292
468
710
868
847
707
524
314
186
191
321
498
739
891
861
714
531
319
189
183
305
488
732
877
840
704
532
324
192
178
286
448
678
841
827
677
502
303
179
173
305
490
738
914
928
830
700
516
415
471
612
773
976
1023
1023
842
615
367
218
175
271
435
662
804
773
637
462
274
162
145
264
434
672
836
812
668
491
293
174
160
278
458
694
845
823
676
490
294
174
169
293
473
712
865
833
697
530
325
195
198
332
507
735
882
852
705
521
313
185
170
288
468
695
854
850
723
556
341
201
192
312
482
721
892
874
737
562
341
203
198
321
493
721
878
864
722
540
331
197
202
338
518
745
912
907
772
596
372
220
204
336
522
762
936
910
765
597
375
225
223
349
520
753
929
922
797
636
421
266
277
403
570
811
987
971
820
632
408
249
249
375
552
795
969
955
825
659
435
261
246
361
527
760
932
917
787
602
372
220
195
315
485
709
864
838
698
527
320
189
149
254
421
649
818
811
679
509
307
181
128
211
380
615
781
768
642
496
307
181
136
225
373
603
796
794
645
466
280
166
126
216
391
625
800
795
661
494
301
178
141
240
425
687
873
848
691
506
307
182
155
269
430
651
833
849
728
552
339
200
178
294
457
677
852
859
727
552
340
201
172
289
453
673
849
842
711
554
357
211
180
280
434
651
825
829
704
535
327
193
166
278
438
665
857
872
740
569
355
210
180
287
447
685
880
894
753
559
343
203
177
282
441
663
851
867
745
566
353
208
176
287
452
675
861
879
755
588
373
220
171
265
432
666
864
887
760
586
370
218
164
260
430
668
867
883
745
568
357
211
188
310
480
718
909
911
765
578
357
211
169
266
416
641
836
858
741
571
354
209
168
272
430
650
849
879
762
592
373
220
174
278
440
674
875
907
798
620
387
228
182
303
482
711
908
922
784
607
387
228
171
276
450
699
929
959
824
627
392
232
189
313
495
745
962
982
845
646
405
239
175
266
433
686
912
955
841
667
422
249
179
283
472
736
975
1023
885
687
439
259
188
293
471
726
962
1007
871
664
410
242
162
243
408
663
913
967
835
641
399
235
160
254
437
704
956
1007
855
637
389
230
150
228
406
672
926
978
844
626
382
226
145
218
405
680
933
992
855
643
394
232
150
224
402
673
924
965
822
621
382
225
145
225
408
661
899
948
810
612
375
221
134
182
351
611
874
936
796
591
359
212
132
200
376
625
874
944
828
637
405
239
214
377
617
921
1023
1023
1023
821
513
304
181
170
292
527
757
794
654
449
264
156
94
120
284
547
818
897
785
582
349
206
123
159
324
580
836
897
764
557
334
197
118
156
330
596
863
933
798
569
339
200
120
161
322
583
861
949
834
624
377
223
135
184
349
607
878
953
827
627
387
229
138
185
350
606
887
972
831
613
375
222
133
178
346
597
858
947
844
660
416
245
146
173
340
613
908
1002
889
690
431
254
154
206
391
657
922
995
873
667
419
247
148
196
387
669
966
1023
931
716
452
268
168
241
434
696
967
1023
941
732
470
277
178
270
459
705
979
1023
959
742
476
281
175
240
437
708
976
1023
916
713
459
271
162
195
354
602
873
974
861
658
412
243
145
154
297
537
806
896
775
583
362
214
128
128
283
537
816
899
778
568
341
202
120
138
294
537
809
893
767
565
346
205
122
131
284
524
804
918
817
614
377
222
132
149
305
541
816
928
826
627
388
229
136
148
305
561
850
952
832
629
395
233
139
158
316
580
874
984
880
683
432
255
152
161
314
568
866
987
873
657
407
240
144
187
349
593
888
997
886
687
435
257
153
167
329
582
872
987
885
684
440
259
154
184
352
591
872
983
887
702
461
272
161
154
306
559
858
988
896
693
448
264
157
179
335
571
848
968
878
681
429
253
151
162
328
582
872
991
886
686
444
262
156
177
333
578
874
1004
909
704
450
266
158
179
338
587
893
1023
921
709
457
270
160
167
331
587
889
1009
896
684
437
258
154
161
321
562
838
961
875
680
436
257
153
136
282
528
829
962
882
695
447
263
157
170
330
566
848
972
878
685
448
264
157
166
332
590
881
999
900
691
439
259
154
153
302
547
866
1018
932
732
477
281
167
163
320
560
857
1002
924
718
461
272
162
176
337
576
869
1004
914
715
462
273
162
154
308
558
868
1015
926
719
463
273
162
170
335
561
856
1012
933
730
483
285
169
170
347
613
907
1023
930
725
473
279
166
179
336
569
866
1009
929
730
482
284
169
182
354
600
893
1023
944
749
503
296
176
183
347
590
893
1023
964
749
483
285
169
160
311
554
857
1007
939
743
487
287
171
163
311
533
831
990
915
721
480
283
168
193
384
659
1006
1023
1023
1020
788
486
301
307
440
641
901
1012
895
665
414
244
146
112
234
461
768
941
885
695
453
267
159
141
284
520
821
986
922
714
468
276
164
148
291
528
845
1023
952
732
474
280
166
143
281
514
818
984
927
740
486
286
170
146
281
506
814
992
932
732
480
283
168
145
291
523
829
1005
944
744
489
288
171
151
299
540
859
1023
988
776
519
305
181
158
301
533
847
1023
985
790
544
320
190
171
320
546
847
1022
971
808
600
356
211
187
336
566
880
1023
1023
841
588
345
205
194
353
600
927
1023
1023
852
607
358
213
212
388
629
935
1023
1023
875
618
365
217
225
