514
543
562
557
533
505
487
493
517
547
567
562
539
510
489
494
519
550
569
563
536
504
481
487
513
542
562
555
530
499
478
483
510
544
565
559
531
498
477
483
510
541
561
556
529
498
479
487
514
546
567
560
534
503
484
492
519
550
569
562
535
502
480
487
515
546
564
555
529
499
480
488
516
546
564
556
528
496
476
484
512
545
565
556
528
496
476
483
509
538
556
546
517
486
468
477
503
534
553
544
517
487
470
480
507
539
557
547
519
488
470
481
510
542
560
550
521
491
474
483
512
544
562
550
522
491
475
487
516
548
565
553
524
493
477
489
518
549
565
553
525
494
478
491
522
553
568
555
527
497
482
494
523
553
567
554
523
491
476
490
521
551
566
553
523
492
478
492
521
551
564
549
519
487
472
487
518
548
560
547
518
486
471
485
515
547
563
549
519
487
472
487
518
550
564
547
514
484
472
488
520
552
565
550
518
486
473
490
521
552
564
547
515
483
471
490
523
555
567
548
513
481
468
486
520
554
567
548
515
482
470
489
524
556
567
548
515
482
472
492
527
560
570
549
514
482
471
490
524
557
568
549
513
481
471
493
528
560
570
548
512
480
471
493
527
558
566
546
512
480
472
495
532
565
573
549
511
478
469
492
529
561
568
543
506
475
468
494
532
564
572
548
512
482
475
499
537
569
575
550
513
481
475
502
541
573
578
551
512
480
474
500
539
572
577
550
510
477
472
501
543
576
579
549
508
473
469
500
542
574
577
547
505
471
468
500
542
575
577
543
498
464
460
492
537
572
574
539
491
455
453
489
537
573
573
536
487
449
448
488
538
575
573
532
480
442
442
484
536
575
574
529
474
433
433
476
531
572
570
524
466
423
425
470
528
570
566
519
461
420
425
474
533
575
571
521
457
413
417
468
532
577
573
519
454
410
415
468
532
574
564
505
439
395
402
455
518
561
553
498
436
396
405
455
512
549
539
489
433
400
410
454
502
532
522
480
439
416
425
457
488
506
499
477
455
445
453
466
473
473
469
472
481
493
494
476
448
425
427
462
511
547
539
481
408
357
367
444
541
607
586
484
364
286
304
415
550
637
609
479
336
247
275
404
552
643
612
478
333
244
271
399
546
636
602
462
308
209
239
388
567
684
635
426
219
114
60
671
1023
1023
1023
1023
657
342
181
410
1023
1023
1023
968
498
260
138
74
40
22
13
8
5
3
2
2
1
1
1
1
1
1
1
1
1
1
1
1
1
1
1
1
1
1
1
1
1
1
1
1
1
1
1
1
1
1
1
1
1
1
1
1
1
1
1
1
1
1
1
1
1
1
1
64
580
962
518
264
139
73
58
477
1023
1023
795
407
213
113
102
629
1023
1023
901
461
241
128
164
752
1023
1023
862
443
232
123
525
1023
1023
1023
1023
616
322
229
849
1023
1023
1023
1023
630
330
300
926
1023
1023
1023
1023
728
554
968
1023
1023
1023
1023
1023
950
577
868
1023
1023
1023
1023
1023
1023
739
981
1023
1023
1023
1023
1023
1023
901
1023
1023
1023
1023
1023
1023
1023
803
1023
1023
1023
1023
1023
1023
860
542
714
1023
1023
1023
1023
1023
723
546
774
1023
1023
1023
1023
1023
600
316
347
891
1023
1023
1023
1023
548
288
220
617
1023
1023
1023
816
422
222
119
238
615
1023
1023
695
358
188
100
54
170
902
1023
595
306
161
85
46
149
888
1023
581
299
157
83
45
126
871
1023
563
289
152
80
43
77
824
1023
527
271
142
75
40
70
817
1005
515
265
139
73
40
53
796
967
492
253
133
70
38
52
795
954
484
248
131
69
37
58
804
952
482
248
130
69
37
62
810
946
479
246
129
68
37
70
822
958
485
249
131
69
37
89
843
979
497
256
135
71
38
109
862
989
503
259
136
72
39
122
873
987
502
258
136
72
38
129
879
971
492
253
133
70
38
136
885
955
483
248
131
69
37
147
893
948
479
246
130
69
37
164
905
947
478
246
129
68
37
184
917
951
480
247
130
69
37
206
931
957
483
249
131
69
37
226
942
956
483
249
131
69
37
248
953
958
483
249
131
69
37
270
964
957
483
249
131
69
37
291
975
955
482
249
131
69
37
312
985
952
481
248
131
69
37
334
996
953
481
248
131
69
37
356
1007
954
482
249
131
69
37
377
1017
953
481
248
131
69
37
397
1023
954
481
249
131
69
37
417
1023
953
481
249
131
69
37
442
1023
958
484
250
132
70
38
464
1023
960
485
251
132
70
38
484
1023
961
485
251
132
70
38
501
1023
959
484
251
132
70
38
523
1023
963
486
252
133
70
38
542
1023
965
488
252
133
71
38
562
1023
968
489
253
134
71
38
579
1023
965
488
252
133
71
38
595
1023
961
486
252
133
71
38
612
1023
961
486
252
133
71
38
627
1023
954
483
250
132
70
38
639
1023
944
478
247
131
69
37
656
1023
943
477
247
131
69
37
668
1023
935
474
246
130
69
37
683
1023
931
472
245
129
69
37
697
1023
929
471
244
129
68
37
713
1023
928
471
244
129
68
38
727
1023
923
468
243
128
68
39
738
1023
915
464
241
127
68
42
753
1023
913
464
241
127
68
46
766
1023
908
462
239
127
67
50
777
1023
900
458
238
126
67
55
790
1023
898
457
237
126
67
62
802
1023
892
454
236
125
66
68
812
1023
885
451
234
124
66
75
823
1023
879
448
233
123
66
84
834
1023
874
445
232
123
65
93
846
1023
868
443
230
122
65
104
856
1023
861
439
229
121
64
114
866
1023
853
435
227
120
64
124
875
1023
844
431
224
119
63
136
885
1023
837
428
223
118
63
148
895
1023
831
425
221
117
62
161
904
1023
821
420
219
116
62
177
915
1023
817
418
218
115
62
195
926
1023
814
416
217
115
61
210
935
1023
805
412
215
114
61
224
943
1023
797
408
213
113
60
246
954
1023
792
406
212
112
60
268
965
1023
788
404
211
112
60
285
974
1023
781
401
209
111
59
303
983
1023
774
397
207
110
59
322
992
1023
769
395
206
109
58
335
998
1023
759
390
204
108
57
352
1007
1023
753
387
202
107
57
371
1016
1023
748
384
201
106
57
388
1023
1023
741
381
199
106
56
406
1023
1023
737
379
198
105
56
422
1023
1023
732
376
197
104
56
434
1023
1023
722
371
194
103
55
449
1023
1023
715
368
192
102
54
463
1023
1023
708
364
191
101
54
476
1023
1023
701
361
189
100
54
489
1023
1023
692
356
187
99
53
506
1023
1023
687
354
185
98
53
521
1023
1023
681
351
184
98
52
535
1023
1023
675
348
182
97
52
549
1023
1023
670
345
181
96
51
565
1023
1023
665
343
180
95
51
581
1023
1023
661
341
179
95
51
594
1023
1023
654
338
177
94
50
608
1023
1023
648
335
176
93
50
620
1023
1023
644
333
175
93
50
634
1023
1023
639
330
173
92
49
648
1023
1023
634
328
172
91
49
661
1023
1023
627
325
170
90
48
671
1023
1023
620
321
168
89
48
683
1023
1023
614
318
167
89
48
693
1023
1023
608
315
165
88
47
705
1023
1023
602
312
164
87
47
715
1023
1023
594
308
162
86
47
728
1023
1023
590
306
161
85
48
738
1023
1023
583
302
159
84
49
749
1023
1023
576
299
157
83
51
759
1023
1023
571
296
156
83
55
771
1023
1023
566
294
155
82
58
781
1023
1023
560
291
153
81
63
792
1023
1023
555
288
152
81
67
801
1023
1023
548
285
150
80
72
811
1023
1023
543
282
149
79
80
823
1023
1023
538
280
147
78
87
832
1023
1023
532
277
146
78
94
841
1023
1023
526
274
144
77
103
851
1023
1023
522
272
143
76
113
861
1023
1016
516
269
142
75
122
870
1023
1006
510
266
140
75
133
879
1023
997
506
264
139
74
145
889
1023
989
501
261
138
73
156
898
1023
976
495
258
136
73
168
906
1023
966
490
256
135
72
182
916
1023
957
486
253
134
71
197
925
1023
947
481
251
133
70
212
934
1023
937
476
248
131
70
224
941
1023
925
470
245
130
69
241
950
1023
916
466
243
129
68
260
960
1023
907
462
241
127
68
274
967
1023
893
455
238
126
67
293
976
1023
886
452
236
125
66
307
983
1023
875
447
233
123
66
322
991
1023
864
441
231
122
65
339
999
1023
855
437
228
121
64
354
1007
1023
845
432
226
119
64
368
1013
1023
835
427
223
118
63
382
1020
1023
824
422
221
117
62
400
1023
1023
817
418
219
116
62
418
1023
1023
812
416
218
115
61
436
1023
1023
806
413
216
114
61
449
1023
1023
796
408
214
113
60
462
1023
1023
786
403
211
112
60
477
1023
1023
780
400
209
111
59
490
1023
1023
770
395
207
110
59
506
1023
1023
763
392
205
109
58
519
1023
1023
754
387
203
108
57
532
1023
1023
746
383
201
106
57
546
1023
1023
738
379
199
105
56
560
1023
1023
732
376
198
105
56
574
1023
1023
725
373
196
104
56
588
1023
1023
718
370
194
103
55
600
1023
1023
708
364
191
101
54
611
1023
1023
699
360
189
100
54
625
1023
1023
693
357
188
99
53
638
1023
1023
686
353
186
98
53
651
1023
1023
679
350
184
97
52
662
1023
1023
670
346
182
96
52
673
1023
1023
663
342
180
95
51
685
1023
1023
656
339
178
94
51
698
1023
1023
649
335
176
93
50
707
1023
1023
641
331
174
92
50
720
1023
1023
635
328
173
92
50
731
1023
1023
628
325
171
91
51
743
1023
1023
623
322
170
90
52
753
1023
1023
616
319
168
89
54
763
1023
1023
609
315
166
88
57
774
1023
1023
601
311
164
87
61
785
1023
1023
596
309
163
86
66
796
1023
1023
591
306
161
85
72
808
1023
1023
586
304
160
85
77
817
1023
1023
580
301
159
84
85
829
1023
1023
575
298
157
83
94
841
1023
1023
572
296
157
83
103
851
1023
1023
566
294
155
82
113
861
1023
1023
561
291
154
81
123
871
1023
1023
556
289
152
81
133
880
1023
1023
548
285
151
80
141
886
1023
1023
539
280
148
79
148
893
1023
1023
532
276
146
78
159
901
1023
1023
524
272
144
76
169
908
1023
1016
517
269
142
76
182
917
1023
1006
512
266
141
75
194
925
1023
992
504
263
139
74
209
934
1023
981
499
260
138
73
222
941
1023
968
492
257
136
72
236
949
1023
957
487
254
134
71
253
958
1023
945
482
251
133
70
269
966
1023
935
477
248
132
70
284
973
1023
922
470
245
130
69
301
981
1023
913
466
243
128
68
317
989
1023
902
461
240
127
68
335
998
1023
893
457
238
126
67
351
1006
1023
883
452
236
125
66
366
1014
1023
874
447
233
124
66
382
1022
1023
864
443
231
122
65
399
1023
1023
857
439
229
121
65
413
1023
1023
846
434
226
120
64
428
1023
1023
837
429
224
119
63
442
1023
1023
828
425
222
118
63
458
1023
1023
820
421
220
117
62
472
1023
1023
813
418
218
116
62
488
1023
1023
804
413
216
114
61
501
1023
1023
795
409
214
113
60
514
1023
1023
786
404
212
112
60
530
1023
1023
779
401
210
111
59
543
1023
1023
770
396
207
110
59
556
1023
1023
760
392
205
109
58
569
1023
1023
752
387
203
108
57
580
1023
1023
742
382
200
106
57
592
1023
1023
731
377
198
105
56
604
1023
1023
724
374
196
104
56
619
1023
1023
718
371
194
103
55
630
1023
1023
709
366
192
102
54
640
1023
1023
697
360
189
100
54
649
1023
1023
687
355
186
99
53
660
1023
1023
679
351
184
98
52
670
1023
1023
669
346
181
96
52
684
1023
1023
663
343
180
95
51
696
1023
1023
658
340
179
95
51
709
1023
1023
652
338
177
94
50
719
1023
1023
643
333
175
93
50
727
1023
1023
632
328
172
91
50
736
1023
1023
626
324
170
90
52
749
1023
1023
622
322
169
90
55
760
1023
1023
616
319
168
89
58
772
1023
1023
611
317
167
88
61
783
1023
1023
604
314
165
88
65
791
1023
1015
516
269
142
75
40
701
1023
775
395
206
109
58
31
689
1023
712
363
190
100
53
29
16
9
6
4
3
2
2
13
750
1023
914
464
241
127
68
64
804
1023
1013
515
269
142
75
80
824
1023
1004
510
266
140
74
80
824
1023
850
433
226
119
63
76
823
1023
885
450
235
124
66
97
847
1023
954
484
252
133
71
119
867
1023
982
499
260
137
73
137
883
1023
1023
525
274
144
77
161
901
1023
1023
525
274
144
77
177
912
1023
1006
511
267
141
75
186
918
1023
1013
515
269
142
75
206
930
1023
1001
508
265
140
74
220
938
1023
996
506
264
139
74
234
946
1023
978
496
259
137
73
248
954
1023
895
456
238
126
67
244
951
1023
916
466
243
129
68
269
964
1023
927
472
246
130
69
291
975
1023
935
476
249
131
70
311
985
1023
912
465
243
128
68
323
991
1023
898
458
239
126
67
332
995
1023
863
441
230
122
65
336
997
1023
840
429
225
119
63
338
998
1023
820
419
220
116
62
353
1006
1023
790
404
212
112
60
343
1000
1023
694
356
187
99
53
358
1008
1023
744
382
200
106
56
382
1020
1023
737
378
198
105
56
405
1023
1023
729
374
196
104
55
413
1023
1023
726
373
195
103
55
425
1023
1023
749
385
202
107
57
460
1023
1023
769
395
207
110
58
489
1023
1023
785
403
211
112
60
511
1023
1023
789
405
212
112
60
530
1023
1023
784
403
211
112
60
542
1023
1023
770
395
207
110
59
557
1023
1023
764
393
206
109
58
571
1023
1023
756
389
204
108
58
586
1023
1023
754
388
204
108
58
598
1023
1023
744
383
201
107
57
617
1023
1023
744
383
201
106
57
634
1023
1023
737
379
199
106
56
647
1023
1023
731
377
198
105
56
666
1023
1023
742
382
201
106
57
695
1023
1023
753
388
204
108
58
709
1023
1023
744
384
202
107
57
715
1023
1023
730
376
198
105
56
724
1023
1023
720
371
195
103
56
735
1023
1023
710
366
192
102
56
743
1023
1023
697
360
189
100
57
749
1023
1023
684
353
186
99
57
757
1023
1023
672
347
183
97
59
767
1023
1023
664
343
181
96
62
777
1023
1023
656
339
179
95
65
787
1023
1023
649
336
177
94
69
797
1023
1023
641
332
175
93
73
806
1023
1023
632
327
172
91
78
815
1023
1023
624
323
170
90
84
825
1023
1023
616
319
168
89
90
833
1023
1023
608
315
166
88
97
843
1023
1023
602
312
164
87
104
851
1023
1023
593
308
162
86
111
859
1023
1023
583
303
160
85
116
864
1023
1023
573
297
157
83
132
878
1023
1023
573
298
157
83
144
889
1023
1023
567
295
156
82
154
896
1023
1023
559
290
153
81
162
903
1023
1023
549
286
151
80
176
913
1023
1023
544
283
150
79
189
921
1023
1023
538
280
148
78
203
930
1023
1023
532
277
146
77
214
937
1023
1023
524
273
144
77
228
944
1023
1017
518
270
143
76
245
954
1023
1010
514
268
142
75
264
963
1023
1002
509
266
141
75
283
972
1023
991
504
263
139
74
297
979
1023
978
498
260
137
73
313
988
1023
967
492
257
136
72
328
995
1023
954
486
254
134
71
343
1002
1023
942
480
250
133
70
357
1009
1023
929
474
248
131
70
371
1016
1023
916
468
244
129
69
383
1022
1023
903
462
241
128
68
397
1023
1023
891
456
238
126
67
413
1023
1023
881
451
236
125
66
428
1023
1023
870
446
233
123
66
441
1023
1023
860
441
230
122
65
454
1023
1023
849
436
228
121
64
468
1023
1023
839
431
225
119
64
483
1023
1023
830
426
223
118
63
496
1023
1023
820
421
220
117
62
509
1023
1023
811
417
218
116
62
526
1023
1023
804
413
216
115
61
539
1023
1023
796
409
214
114
61
553
1023
1023
786
404
212
112
60
565
1023
1023
778
400
210
111
59
579
1023
1023
769
396
207
110
59
591
1023
1023
760
392
205
109
58
604
1023
1023
751
387
203
108
57
615
1023
1023
742
383
201
107
57
627
1023
1023
734
379
198
105
56
640
1023
1023
726
375
196
104
56
651
1023
1023
717
370
194
103
55
662
1023
1023
709
366
192
102
54
674
1023
1023
700
362
190
101
54
685
1023
1023
691
357
188
99
53
696
1023
1023
683
353
185
98
53
708
1023
1023
676
350
184
97
52
719
1023
1023
668
346
182
96
52
730
1023
1023
660
342
180
95
53
741
1023
1023
653
338
178
94
54
751
1023
1023
646
335
176
93
57
763
1023
1023
639
332
174
92
60
774
1023
1023
633
328
173
91
64
785
1023
1023
627
325
171
91
67
794
1023
1023
617
320
169
90
72
804
1023
1023
611
317
167
89
78
814
1023
1023
604
314
165
88
84
823
1023
1023
597
310
163
87
91
834
1023
1023
592
308
162
86
98
843
1023
1023
584
304
160
85
107
852
1023
1023
577
300
158
84
115
860
1023
1023
570
297
156
83
124
870
1023
1023
563
293
155
82
133
878
1023
1023
556
289
152
81
144
887
1023
1023
550
287
151
80
155
896
1023
1023
544
284
150
79
168
905
1023
1023
538
281
148
79
179
913
1023
1023
531
277
146
78
195
923
1023
1023
527
275
145
77
208
931
1023
1023
520
272
143
76
222
939
1023
1013
514
269
142
75
238
948
1023
1002
508
266
140
74
253
956
1023
990
502
263
139
74
270
964
1023
979
497
260
137
73
286
973
1023
967
491
257
136
72
302
980
1023
956
486
254
134
71
319
989
1023
947
482
252
133
71
334
996
1023
935
476
249
132
70
348
1003
1023
922
470
246
130
69
363
1011
1023
911
465
243
128
68
377
1018
1023
901
460
240
127
68
395
1023
1023
891
455
238
126
67
410
1023
1023
882
451
236
125
66
425
1023
1023
871
445
233
123
66
437
1023
1023
860
440
230
122
65
453
1023
1023
851
436
228
121
64
466
1023
1023
841
431
226
119
64
481
1023
1023
831
426
223
118
63
493
1023
1023
821
421
221
117
62
508
1023
1023
812
417
219
115
62
522
1023
1023
803
412
216
114
61
537
1023
1023
794
408
214
113
60
549
1023
1023
784
403
211
112
60
561
1023
1023
776
399
209
111
59
574
1023
1023
766
394
207
110
58
588
1023
1023
758
390
205
108
58
600
1023
1023
749
386
202
107
57
613
1023
1023
741
382
200
106
57
624
1023
1023
732
377
198
105
56
636
1023
1023
723
373
196
104
56
649
1023
1023
716
369
194
103
55
661
1023
1023
709
366
192
102
54
673
1023
1023
700
361
190
101
54
684
1023
1023
693
357
188
100
53
696
1023
1023
685
353
186
98
53
707
1023
1023
677
350
184
97
52
718
1023
1023
669
345
182
96
52
729
1023
1023
660
341
180
95
53
740
1023
1023
652
337
178
94
54
749
1023
1023
644
333
176
93
55
760
1023
1023
636
329
173
92
58
770
1023
1023
629
326
172
91
61
781
1023
1023
623
323
170
90
65
791
1023
1023
616
319
168
89
69
800
1023
1023
607
315
166
88
74
809
1023
1023
599
310
164
87
80
820
1023
1023
593
308
162
86
86
829
1023
1023
586
304
161
85
93
838
1023
1023
580
301
159
84
102
848
1023
1023
573
298
157
83
110
857
1023
1023
567
295
156
82
119
867
1023
1023
561
291
154
81
129
875
1023
1023
555
288
152
81
140
885
1023
1023
549
286
151
80
153
896
1023
1023
544
283
149
79
164
904
1023
1023
538
280
148
78
176
912
1023
1023
531
276
146
77
190
921
1023
1023
525
273
145
77
203
930
1023
1021
519
271
143
76
219
939
1023
1010
513
268
142
75
234
948
1023
999
508
265
140
74
250
956
1023
988
502
262
139
74
267
964
1023
976
496
259
137
73
283
972
1023
965
491
256
136
72
298
980
1023
950
484
253
134
71
315
988
1023
940
480
250
132
70
332
996
1023
930
474
247
131
70
347
1004
1023
919
469
245
130
69
360
1011
1023
906
463
242
128
68
376
1018
1023
897
459
240
127
67
392
1023
1023
886
454
237
126
67
410
1023
1023
878
450
235
124
66
422
1023
1023
866
444
232
123
65
436
1023
1023
856
439
229
122
65
451
1023
1023
846
434
227
120
64
464
1023
1023
836
429
224
119
63
480
1023
1023
828
425
223
118
63
494
1023
1023
818
421
220
117
62
508
1023
1023
809
416
218
115
61
522
1023
1023
800
412
215
114
61
535
1023
1023
790
407
213
113
60
549
1023
1023
781
402
211
112
60
562
1023
1023
771
398
208
110
59
573
1023
1023
761
392
206
109
58
587
1023
1023
753
388
204
108
58
599
1023
1023
743
384
201
107
57
613
1023
1023
735
380
199
105
56
624
1023
1023
725
375
196
104
56
637
1023
1023
719
371
195
103
55
648
1023
1023
709
366
192
102
54
661
1023
1023
702
363
190
101
54
672
1023
1023
694
359
188
100
53
684
1023
1023
686
355
186
99
53
695
1023
1023
678
351
184
98
52
707
1023
1023
670
347
182
97
52
717
1023
1023
662
343
180
95
52
728
1023
1023
655
340
178
95
52
739
1023
1023
647
335
176
93
54
750
1023
1023
641
333
175
93
56
760
1023
1023
633
328
173
92
59
771
1023
1023
627
325
171
91
62
782
1023
1023
620
322
169
90
66
791
1023
1023
612
318
167
89
71
802
1023
1023
606
315
166
88
77
812
1023
1023
599
312
164
87
83
822
1023
1023
592
308
162
86
89
831
1023
1023
585
304
160
85
96
839
1023
1023
577
300
158
84
105
850
1023
1023
573
298
157
83
114
860
1023
1023
566
295
155
82
126
871
1023
1023
560
292
154
81
135
879
1023
1023
554
288
152
81
145
888
1023
1023
546
285
150
80
157
897
1023
1023
541
282
149
79
170
906
1023
1023
535
279
147
78
182
915
1023
1023
528
276
145
77
195
923
1023
1023
523
273
144
77
209
931
1023
1017
516
270
142
76
222
939
1023
1001
507
265
140
74
235
946
1023
987
500
262
138
73
251
955
1023
974
494
259
137
73
266
962
1023
963
489
256
135
72
284
971
1023
952
484
253
134
71
300
979
1023
942
479
250
132
70
319
989
1023
934
475
249
131
70
334
996
1023
921
469
245
130
69
349
1004
1023
910
464
243
128
68
363
1010
1023
897
458
240
127
67
378
1018
1023
886
453
237
125
67
396
1023
1023
877
448
235
124
66
412
1023
1023
866
443
232
123
65
423
1023
1023
854
437
229
121
64
439
1023
1023
845
433
227
120
64
454
1023
1023
837
429
225
119
63
470
1023
1023
829
425
223
118
63
483
1023
1023
817
419
220
116
62
497
1023
1023
810
416
218
115
62
511
1023
1023
799
410
215
114
61
526
1023
1023
792
407
213
113
60
540
1023
1023
783
402
211
112
60
554
1023
1023
774
398
209
111
59
564
1023
1023
762
392
206
109
58
576
1023
1023
752
387
203
108
58
588
1023
1023
741
382
200
106
57
600
1023
1023
734
378
199
105
56
614
1023
1023
726
374
197
104
56
627
1023
1023
719
371
195
103
55
640
1023
1023
710
366
192
102
54
652
1023
1023
702
362
190
101
54
665
1023
1023
697
360
189
100
54
677
1023
1023
689
355
187
99
53
688
1023
1023
680
351
185
98
52
698
1023
1023
671
347
182
96
52
709
1023
1023
662
342
180
95
51
720
1023
1023
655
339
178
94
51
732
1023
1023
648
335
176
93
52
742
1023
1023
640
331
175
92
54
753
1023
1023
632
328
173
91
56
763
1023
1023
625
324
171
90
59
774
1023
1023
618
320
169
89
62
784
1023
1023
611
317
167
88
66
795
1023
1023
604
313
165
87
71
804
1023
1023
595
309
163
86
76
814
1023
1023
588
305
161
85
82
823
1023
1023
580
301
159
84
87
831
1023
1023
573
298
157
83
94
840
1023
1023
565
294
155
82
100
847
1023
1023
556
289
153
81
108
855
1023
1023
548
285
150
79
115
863
1023
1023
540
281
149
79
124
871
1023
1023
533
277
146
78
133
880
1023
1023
526
274
145
77
144
888
1023
1022
519
271
143
76
156
898
1023
1011
514
268
142
75
168
906
1023
998
507
265
140
74
178
914
1023
984
500
261
138
73
192
923
1023
972
494
258
136
72
204
930
1023
958
487
254
135
71
217
938
1023
944
481
251
133
70
230
945
1023
929
474
247
131
69
243
952
1023
916
467
244
129
68
258
960
1023
904
461
241
127
68
275
968
1023
893
456
238
126
67
291
976
1023
880
450
235
124
66
306
983
1023
869
445
232
123
65
323
992
1023
858
439
230
122
64
339
1000
1023
848
435
227
120
64
354
1007
1023
838
430
225
119
63
373
1017
1023
831
426
223
118
63
392
1023
1023
825
424
222
117
62
410
1023
1023
819
421
220
116
62
427
1023
1023
812
417
218
115
61
443
1023
1023
803
413
216
114
61
457
1023
1023
794
408
214
113
60
473
1023
1023
786
404
212
112
60
488
1023
1023
777
400
210
111
59
502
1023
1023
768
396
207
110
59
517
1023
1023
761
392
205
109
58
532
1023
1023
753
388
203
108
57
547
1023
1023
747
385
202
107
57
563
1023
1023
739
381
200
106
56
578
1023
1023
733
378
198
105
56
590
1023
1023
725
374
196
104
56
605
1023
1023
718
371
194
103
55
619
1023
1023
711
367
193
102
54
630
1023
1023
701
362
190
101
54
644
1023
1023
695
359
188
100
53
657
1023
1023
687
355
186
99
53
668
1023
1023
678
351
184
98
52
680
1023
1023
671
347
182
97
52
692
1023
1023
663
344
180
95
51
704
1023
1023
656
340
178
95
51
717
1023
1023
649
336
177
94
51
728
1023
1023
641
333
175
93
52
740
1023
1023
634
329
173
92
53
750
1023
1023
627
326
171
91
55
760
1023
1023
619
322
169
90
58
770
1023
1023
611
317
167
89
62
783
1023
1023
605
314
165
88
66
792
1023
1023
597
310
163
86
71
804
1023
1023
590
307
161
86
76
812
1023
1023
582
303
160
85
82
822
1023
1023
576
300
158
84
90
833
1023
1023
570
297
156
83
98
843
1023
1023
563
293
155
82
105
851
1023
1023
556
290
152
81
115
861
1023
1023
550
287
151
80
124
870
1023
1023
543
283
149
79
136
880
1023
1023
537
280
148
78
147
889
1023
1023
530
277
146
77
159
898
1023
1023
524
274
144
77
170
906
1023
1020
517
270
143
76
182
915
1023
1009
512
267
141
75
196
924
1023
996
505
264
139
74
208
931
1023
983
498
261
138
73
224
940
1023
972
493
258
136
72
241
949
1023
962
489
256
135
72
257
958
1023
950
483
252
133
71
277
967
1023
941
478
250
132
70
295
976
1023
931
474
248
131
69
315
986
1023
924
471
246
130
69
343
1000
1023
929
473
248
131
69
375
1016
1023
939
478
250
132
70
410
1023
1023
950
484
253
134
71
443
1023
1023
962
489
256
136
72
474
1023
1023
969
493
258
136
73
502
1023
1023
975
496
260
137
73
534
1023
1023
986
501
263
139
74
568
1023
1023
999
508
266
141
75
596
1023
1023
1004
511
268
142
75
620
1023
1023
1005
511
268
142
76
637
1023
1023
1023
1023
1023
1023
1023
1023
1023
1023
1023
1023
1023
1023
713
1021
1023
1023
946
487
258
138
74
669
1023
1023
922
472
248
131
70
678
1023
1023
919
470
247
131
70
598
1023
1023
1023
1023
1023
1023
1023
1023
1023
1023
1023
1023
1023
1023
1023
1023
1023
1023
1023
1023
1023
1023
1023
1023
1023
1023
1023
1023
1023
1023
1023
1023
1023
1023
1023
1023
1023
1023
1023
1023
1023
1023
1023
1023
1023
1023
1023
1023
1023
1023
1023
1023
1023
1023
1023
1023
1023
1023
1023
1023
1023
1023
1023
1023
1023
1023
1023
1023
1023
1023
1023
1023
1023
1023
1023
1023
1023
1023
1023
1023
1023
1023
1023
1023
1023
1023
1023
1023
1023
1023
1023
1023
1023
1023
1023
1023
1023
1023
1023
1023
1023
1023
1023
1023
1023
1023
1023
1023
1023
1023
1023
1023
1023
1023
1023
590
362
964
1023
1023
1023
1023
655
344
184
606
1023
1023
1023
1023
531
280
149
368
1015
1023
1023
827
429
226
121
230
935
1023
1023
738
384
202
108
58
32
18
11
7
4
3
2
2
1
1
1
1
1
1
1
92
839
1023
1023
535
280
148
79
42
23
13
8
5
3
2
2
1
1
1
1
1
1
1
1
1
1
1
1
1
1
1
1
1
1
1
1
1
1
1
1
1
1
1
1
1
1
1
1
1
1
1
1
0
1
1
1
1
0
1
1
1
1
1
1
1
1
1
1
1
1
1
1
0
0
1
1
0
0
1
0
1
0
1
1
1
1
1
1
1
1
1
1
1
1
1
1
0
1
1
0
0
1
0
0
1
1
1
1
0
0
1
1
0
1
1
1
1
1
1
1
1
1
1
1
1
1
1
1
1
1
1
1
1
1
1
1
0
1
1
1
0
1
0
1
1
0
1
1
1
1
1
0
1
1
1
1
1
1
0
1
1
1
1
1
1
1
1
1
0
1
1
1
1
1
0
0
1
0
1
1
1
1
1
0
1
0
1
1
1
1
0
1
1
1
1
1
1
0
0
1
1
1
0
1
0
0
1
1
1
1
1
1
1
1
0
1
1
0
0
1
0
1
1
1
1
1
1
0
1
0
1
121
874
1023
1023
1023
1023
1023
1023
1023
1023
1023
1023
1023
1023
1023
1023
1023
1023
1023
1023
1023
1023
1023
1023
1023
1023
1023
1023
1023
1023
1023
1023
1023
1023
1023
1023
1023
1023
1023
1023
1023
1023
1023
1023
1002
1023
1023
1023
1023
1023
1023
1023
944
919
1023
1023
1023
1023
1023
1023
863
619
1023
1023
1023
1023
1023
1023
760
424
977
1023
1023
1023
930
1023
682
357
823
1023
1023
1023
784
949
628
329
683
1023
1023
1023
660
901
609
317
536
1023
1023
1023
548
840
575
297
378
1023
1023
874
449
778
532
274
253
942
1023
702
362
709
477
244
175
866
1023
558
289
652
432
220
131
790
856
429
223
604
396
201
107
692
628
316
164
563
365
185
96
526
423
213
110
552
359
181
94
380
266
134
69
581
387
196
101
209
116
59
32
663
465
236
122
63
34
18
18
725
559
282
146
76
40
22
38
780
677
341
177
92
49
26
80
835
835
419
217
114
60
32
150
894
991
501
260
137
72
38
243
950
1023
581
301
158
84
45
335
996
1023
648
335
176
93
50
377
1017
1023
677
350
184
97
52
462
1023
1023
751
388
203
108
58
527
1023
1023
807
416
218
116
62
598
1023
1023
869
447
234
124
67
661
1023
1023
915
470
246
131
70
697
1023
1023
923
474
248
132
70
702
1023
1023
891
458
240
128
68
701
1023
1023
864
445
233
124
66
709
1023
1023
848
437
229
122
65
713
1023
1023
813
420
220
117
63
682
1023
1023
741
384
202
107
57
616
1023
1023
637
331
174
92
50
552
1023
1023
539
281
148
78
42
486
1023
916
463
241
127
67
36
454
1023
813
412
215
113
60
32
413
1023
703
358
186
98
52
28
398
996
639
325
170
89
47
26
353
907
522
267
139
73
39
21
264
699
361
185
96
50
27
15
211
496
248
127
65
34
18
10
196
419
208
106
55
29
15
8
217
441
219
112
58
30
16
9
250
486
242
124
64
33
18
10
272
501
250
128
66
34
18
10
291
505
252
129
66
35
18
10
330
543
271
139
72
37
20
11
381
601
301
154
151
142
71
37
454
687
346
177
244
282
141
73
519
769
392
201
304
358
178
92
563
817
419
215
350
413
206
106
582
810
414
213
414
508
254
130
600
782
396
204
509
657
330
169
619
736
370
190
636
847
436
224
652
711
356
185
740
1021
552
284
634
600
301
183
838
1023
724
371
576
452
230
241
937
1023
951
483
530
347
182
357
1010
1023
1023
573
600
385
202
479
1023
1023
1023
637
641
401
211
564
1023
1023
1023
680
659
402
212
637
1023
1023
1023
716
566
316
167
690
1023
1023
1023
753
584
322
171
749
1023
1023
1023
779
700
402
212
785
1023
1023
1023
776
785
465
245
793
1023
1023
1023
751
898
559
293
776
1023
1023
1023
693
1021
678
353
745
1023
1023
1023
626
1023
718
371
679
1023
1023
1023
543
974
660
340
552
1023
1023
894
460
855
549
284
442
1023
1023
742
385
810
521
268
186
850
769
388
202
659
421
214
113
340
204
104
55
303
163
82
43
39
21
12
7
241
126
63
37
492
356
180
92
377
206
104
288
972
1023
610
319
599
332
173
607
1023
1023
927
531
1023
658
343
880
1023
1023
1023
813
1023
877
1023
1023
1023
1023
1023
1023
1023
1023
1023
1023
1023
1023
1023
1023
1023
1023
826
1023
1023
1023
1023
1023
1023
1023
679
758
1023
1023
597
685
1023
1023
537
313
585
320
169
414
1023
945
477
248
131
70
38
288
972
830
420
218
115
61
33
230
941
725
368
191
101
53
29
226
935
691
351
182
96
51
27
261
956
718
364
189
100
53
28
316
985
777
394
205
108
57
31
351
1003
799
405
210
111
59
31
400
1023
865
438
227
120
63
34
486
1023
958
484
251
133
70
38
478
1023
907
459
238
126
67
36
463
1023
848
430
224
118
63
34
464
1023
817
415
216
114
60
32
472
1023
794
403
210
111
59
32
476
1023
763
388
202
107
56
30
486
1023
752
383
199
105
56
30
506
1023
755
385
200
106
56
30
526
1023
754
385
200
106
56
30
540
1023
749
382
199
105
55
30
557
1023
748
382
199
105
55
30
574
1023
748
382
199
105
56
30
582
1023
725
370
193
102
54
29
584
1023
698
356
186
98
52
28
580
1023
659
337
176
93
49
27
573
1023
618
317
165
87
46
25
569
1008
582
298
156
82
44
24
575
997
568
292
152
80
43
23
582
983
551
283
148
78
41
22
593
975
542
279
145
76
40
22
611
976
539
277
145
76
40
22
630
982
541
278
145
76
41
22
655
1001
554
285
149
78
41
23
681
1023
572
294
163
86
45
25
699
1023
571
294
200
112
59
35
734
1023
596
307
160
84
45
25
711
1003
546
281
147
77
41
27
736
1023
576
297
155
82
43
45
784
1023
644
331
173
91
48
59
807
1023
662
340
178
94
50
58
804
1023
628
323
169
89
47
60
807
1023
602
310
227
124
65
80
827
1023
601
310
248
137
72
93
841
1023
598
308
161
85
45
82
837
1023
583
301
157
83
44
73
827
1023
552
285
149
79
42
71
826
992
523
270
142
75
40
80
836
988
519
269
141
74
39
89
846
975
509
263
141
74
39
102
859
965
501
268
620
459
232
222
930
987
510
371
992
969
495
377
1019
1022
526
398
1013
943
479
376
1020
998
511
311
799
584
295
286
972
957
488
267
553
354
181
240
948
934
476
272
627
416
211
272
967
937
477
308
809
575
291
336
1003
945
480
372
986
773
391
401
1023
945
479
439
1023
889
449
444
1023
931
471
413
1023
792
400
427
1023
902
455
405
1013
761
386
424
1023
874
441
444
1023
834
422
460
1023
867
438
532
1023
973
493
517
1023
864
437
612
1023
1023
544
558
1023
849
430
608
1023
1023
522
559
1023
826
419
647
1023
1023
558
594
1023
819
416
796
1023
1023
736
720
1023
841
432
903
1023
1023
835
792
1023
840
431
885
1023
1023
772
743
1023
772
411
944
1023
1023
906
758
1023
649
393
993
1023
1023
959
834
1023
681
424
1020
1023
1023
983
721
854
447
477
1023
1023
1023
1023
742
618
323
591
1023
1023
1023
1023
724
437
231
640
1023
1023
1023
1023
749
429
227
711
1023
1023
1023
1023
779
440
233
769
1023
1023
1023
1023
759
404
216
803
1023
1023
1023
1023
725
378
211
840
1023
1023
1023
1023
711
371
207
839
1023
1023
1023
1023
911
471
559
1023
1023
1023
1023
1023
1007
519
588
1023
1023
1023
1023
1023
905
468
525
1023
1023
1023
1023
1023
885
459
492
1023
1023
1023
1023
1023
1023
666
515
1023
1023
1023
1023
1023
1023
758
462
1023
1023
1023
1023
1023
954
640
362
945
1023
1023
1023
1023
848
547
291
847
1023
1023
1023
1007
787
509
268
720
1023
1023
1023
864
727
482
254
598
1023
1023
1023
766
515
287
153
408
1023
1023
1023
645
336
178
95
318
988
1023
1023
645
336
177
95
374
1016
1023
1023
677
380
200
107
432
1023
1023
1023
697
430
227
121
496
1023
1023
1023
742
597
349
184
551
1023
1023
1023
753
711
447
236
635
1023
1023
1023
789
803
525
276
768
1023
1023
1023
944
1023
695
402
983
1023
1023
1023
996
1023
750
398
921
1023
1023
1023
865
964
627
328
769
1023
1023
1023
753
765
454
239
695
1023
1023
1023
708
369
195
105
635
1023
1023
1023
666
347
184
98
601
1023
1023
1023
640
334
177
94
681
1023
1023
1023
704
367
194
116
790
1023
1023
1023
767
403
212
160
860
1023
1023
1023
790
424
224
181
881
1023
1023
1023
775
424
224
162
856
1023
1023
1023
721
390
206
119
782
1023
1023
1023
648
338
179
96
717
1023
1023
1023
607
318
168
91
732
1023
1023
1023
627
328
173
106
786
1023
1023
1023
654
342
180
96
52
29
16
10
6
4
3
15
736
1023
1023
1023
676
742
389
272
933
1023
1023
1023
656
609
318
208
878
1023
1023
1023
623
930
506
266
796
1023
1023
982
529
826
439
231
767
1023
1023
944
490
971
731
374
197
105
57
31
17
10
6
4
3
2
2
1
1
1
1
1
1
1
1
1
1
1
1
1
1
1
1
1
1
1
1
1
1
1
1
1
1
1
1
1
1
1
1
1
1
1
1
1
1
1
1
1
1
1
1
1
1
1
1
1
1
1
1
1
1
1
1
1
1
1
1
1
1
1
1
1
1
1
1
1
1
1
1
1
1
1
1
1
23
95
123
99
55
43
113
243
397
516
541
485
398
355
425
582
770
909
919
817
674
592
665
861
1023
1023
1023
1023
879
747
831
1023
1023
1023
1023
1023
977
697
686
1023
1023
1023
1023
1023
1023
1023
1023
1023
1023
1023
1023
1023
1023
1023
1023
1023
1023
1023
1023
1023
1023
1023
1023
1023
1023
1023
1023
1023
1023
1023
1023
1023
1023
1023
1023
1023
1023
1023
550
292
157
85
46
26
15
9
6
4
3
2
2
1
1
1
1
1
1
1
1
1
1
1
1
1
1
1
1
1
1
1
1
1
1
1
1
1
1
1
1
1
1
1
1
1
1
1
1
1
1
1
1
1
1
101
457
826
1023
1023
1023
1023
1023
1023
1023
1023
1023
1023
1023
1023
1023
1023
1023
1023
1023
1023
1023
1023
1023
1023
1023
1023
1023
1023
1023
1023
1023
1023
1023
1023
1023
1023
1023
1023
1023
1023
1023
1023
1023
1023
1023
1023
1023
1020
985
989
962
909
837
785
746
750
797
817
805
702
673
757
841
947
1023
1023
1023
1023
1023
1023
1023
1023
1023
1023
1023
1023
1023
1023
1023
1023
1023
1023
1023
1023
1023
1023
1023
1023
1023
1023
1023
1023
1023
1023
1023
1023
1023
1023
1023
1023
1023
1023
1023
1023
1023
1023
1023
1023
1023
1023
1023
1023
1023
1023
1023
1023
1023
1023
1023
1023
1023
1023
1023
1023
1023
1023
1023
1023
1023
1023
1023
1023
1023
1023
1023
1023
1023
1023
1023
1023
1023
1023
1023
1023
1023
1023
1023
1023
1023
1023
1023
1023
1023
1023
1023
1023
1023
1023
1023
1023
1023
1023
1023
1023
1023
1023
1023
1023
1023
1023
1023
1023
1023
1023
1023
1023
1023
1023
1023
1023
1023
1023
1023
1023
1023
1023
1023
1023
1023
1023
1023
1023
1023
1023
1023
1023
1023
1023
1023
1023
1023
1023
1023
1023
1023
1023
1023
1023
1023
1023
1023
1023
1023
1023
1023
1023
1023
1023
1023
1023
1023
1023
1023
1023
1023
1023
1023
1023
1023
1023
1023
1023
1023
993
957
926
906
930
960
949
920
915
916
885
816
739
689
703
743
765
774
787
769
751
719
676
682
717
729
715
756
776
778
756
699
663
655
693
757
781
718
700
753
808
799
758
708
692
669
701
731
703
721
733
731
763
777
788
777
764
785
816
842
855
896
951
1018
1023
1023
1023
954
884
832
757
645
562
479
420
419
450
479
472
468
477
490
474
435
402
391
397
394
411
416
410
405
390
385
397
388
369
354
354
351
333
347
383
385
363
335
320
329
382
400
372
355
345
347
374
391
396
405
410
424
439
453
447
448
466
455
385
358
416
452
419
372
360
356
388
424
426
426
421
424
392
362
359
373
350
347
386
397
404
377
369
353
280
280
320
312
296
282
262
267
253
214
156
96
70
79
89
115
141
123
94
90
84
53
40
42
30
46
57
54
27
27
50
50
28
14
8
5
12
7
4
3
2
1
1
3
8
4
3
25
60
39
21
51
49
24
12
7
4
2
2
1
3
40
66
98
80
56
67
84
102
134
139
116
79
110
155
161
176
193
204
191
160
160
169
160
189
209
229
259
254
210
191
194
200
217
242
254
268
282
273
260
223
200
211
248
298
313
288
248
222
228
240
245
238
216
201
176
146
124
95
51
28
57
114
150
183
163
151
166
166
161
168
167
170
177
194
223
235
217
162
111
104
121
126
115
103
125
141
146
131
110
93
82
124
148
142
160
169
147
121
134
115
65
75
117
151
165
164
174
171
150
166
198
203
157
128
144
146
118
108
117
141
114
97
114
128
137
158
162
156
125
93
73
77
85
130
159
160
125
95
106
116
142
171
189
209
211
202
226
227
210
198
163
172
209
243
245
220
218
252
277
291
312
318
324
321
295
273
278
266
244
235
247
289
334
343
318
290
262
250
235
205
228
263
268
273
268
231
210
193
173
164
160
177
187
187
176
158
111
69
90
145
178
178
192
234
288
334
412
488
545
554
529
487
477
473
419
310
218
171
128
84
77
112
167
191
184
166
139
157
163
145
142
181
207
189
158
154
180
211
218
205
197
176
151
166
193
244
257
218
183
175
194
240
267
260
261
290
273
232
219
226
270
327
344
324
289
269
242
224
246
293
282
253
237
242
238
242
263
266
249
279
320
338
317
286
280
301
332
358
341
307
313
313
299
306
332
330
357
385
366
329
289
293
309
334
322
306
289
280
298
306
298
281
251
245
258
219
158
150
203
238
274
263
188
117
109
133
142
150
177
169
154
152
141
121
86
64
75
111
139
113
104
133
173
184
152
136
177
199
167
135
140
145
166
189
208
202
197
191
207
219
235
232
220
241
267
282
265
253
254
255
255
229
204
216
236
225
181
128
151
201
206
215
239
257
250
240
242
240
251
263
240
230
231
234
245
257
272
272
262
284
277
242
256
285
315
330
315
259
221
200
225
254
246
262
270
280
265
242
219
226
221
227
239
260
264
237
255
299
333
299
265
230
196
195
229
248
239
225
226
235
209
171
152
155
165
182
193
201
194
200
184
149
166
193
204
205
213
227
217
218
194
179
172
122
114
148
151
138
150
153
151
155
150
150
172
193
194
185
172
165
176
198
189
161
153
165
183
209
232
222
200
196
190
195
214
221
225
216
216
237
237
215
245
245
229
228
225
236
253
222
189
211
240
259
262
244
222
212
225
223
236
268
276
291
279
240
234
233
217
236
227
217
218
227
266
288
242
213
202
176
149
153
181
195
207
242
267
268
265
254
236
189
191
218
226
223
215
204
195
210
220
184
184
221
206
196
225
257
290
350
393
429
426
418
471
496
475
422
336
264
219
173
147
121
96
131
171
212
180
128
99
152
185
185
183
202
167
90
95
158
220
257
285
287
265
230
208
192
192
217
257
266
276
305
317
301
259
221
191
166
191
253
263
253
261
273
295
317
296
256
253
267
261
270
273
276
305
331
333
316
329
355
376
370
329
324
352
355
345
339
383
394
387
405
436
428
408
427
439
457
474
477
454
452
459
491
513
495
474
469
457
428
431
429
429
394
359
352
347
328
298
293
284
273
299
290
293
280
271
248
253
284
299
281
240
235
253
249
236
210
174
180
191
193
210
244
257
219
196
214
225
227
222
205
168
147
168
208
217
214
236
240
254
238
221
212
230
216
183
183
225
222
206
223
253
270
248
213
220
231
220
209
208
233
286
287
276
285
283
247
230
234
267
311
318
297
285
291
318
339
344
324
359
360
357
348
320
323
332
325
323
307
313
307
300
305
299
321
341
349
353
350
330
296
318
318
320
348
384
402
368
332
311
282
310
293
281
333
367
394
400
390
364
349
334
309
294
287
294
287
290
316
340
326
314
293
271
248
275
304
323
344
332
321
327
322
320
336
369
401
387
341
325
314
278
240
268
361
430
436
399
349
347
335
305
267
285
374
422
441
424
405
386
376
340
317
367
402
402
404
430
420
242
140
247
357
385
354
289
159
81
42
23
18
96
128
65
33
17
9
5
3
42
197
363
427
368
424
633
959
1023
1023
1023
1023
1023
1023
713
374
198
578
1023
1023
1023
1023
1023
1023
627
330
175
94
51
28
16
9
6
4
3
2
2
1
1
1
1
1
1
1
1
1
1
1
1
1
1
1
1
1
1
1
1
1
1
1
1
1
1
1
1
1
1
1
1
1
1
1
1
1
0
1
1
1
1
1
1
1
1
1
1
1
1
29
88
99
65
32
19
67
163
272
344
342
288
222
200
253
353
461
527
514
449
374
345
395
493
599
658
637
564
484
453
499
593
692
741
712
632
545
505
542
621
705
738
697
617
534
510
583
700
803
848
802
705
617
592
646
740
836
880
845
763
677
646
696
789
880
905
844
732
612
550
576
655
738
770
732
656
568
509
515
558
604
632
642
650
671
711
750
776
792
815
925
1023
1023
1023
1023
1023
590
310
239
924
1023
1023
1023
1023
538
283
166
828
1023
1023
1023
945
488
257
138
761
1023
1023
1023
896
464
244
131
759
1023
1023
1023
894
463
244
134
778
1023
1023
1023
902
467
246
151
828
1023
1023
1023
975
502
265
234
928
1023
1023
1023
1023
527
277
322
992
1023
1023
1023
1023
594
312
530
1023
1023
1023
1023
1023
611
321
550
1023
1023
1023
1023
1023
624
328
625
1023
1023
1023
1023
1023
622
327
641
1023
1023
1023
1023
1023
584
307
588
1023
1023
1023
1023
1023
567
298
620
1023
1023
1023
1023
1023
549
289
588
1023
1023
1023
1023
990
510
270
520
1023
1023
1023
1023
895
464
245
436
1023
1023
1023
1023
789
411
217
299
979
1023
1023
1023
684
357
189
180
889
1023
1023
1023
577
303
161
96
771
1023
1023
918
471
248
132
71
613
1023
1023
726
376
198
105
56
461
1023
1023
603
313
165
87
47
372
1013
1023
526
273
144
76
41
336
996
968
488
253
134
71
38
329
992
921
465
241
127
67
36
338
996
912
461
239
126
67
36
385
1020
948
478
248
131
69
37
604
1023
1023
664
344
181
96
102
830
1023
1023
779
403
212
113
61
714
1023
1023
609
317
167
89
48
636
1023
1023
617
320
169
89
48
631
1023
1023
612
318
167
89
48
600
1023
1023
597
310
163
87
46
583
1023
1023
533
278
146
78
42
472
1023
867
440
229
121
64
34
494
1023
792
404
210
111
59
32
594
1023
960
486
253
134
71
160
896
1023
1023
838
433
228
121
462
1023
1023
1023
919
473
249
132
408
1023
1023
1023
842
435
229
122
295
978
1023
1023
767
397
210
111
146
878
1023
1023
623
324
171
91
51
722
1023
893
455
237
126
67
36
580
1023
649
333
174
92
49
27
339
638
317
163
84
45
24
13
8
5
3
2
2
1
1
1
1
1
1
1
1
1
1
1
1
1
1
1
1
1
1
1
1
1
1
1
0
1
1
1
1
1
1
1
1
1
1
1
36
46
23
11
6
3
2
1
322
533
265
136
70
37
19
11
609
991
537
277
145
76
40
37
744
1023
721
370
193
102
54
96
838
1023
861
440
230
122
65
175
907
1023
968
493
258
136
72
261
960
1023
1023
534
279
148
78
340
1000
1023
1023
564
294
156
83
406
1023
1023
1023
590
308
163
87
475
1023
1023
1023
616
321
170
90
527
1023
1023
1023
634
331
175
93
572
1023
1023
1023
647
337
178
95
598
1023
1023
1023
650
339
179
96
618
1023
1023
1023
637
333
176
94
616
1023
1023
1023
612
319
169
90
633
1023
1023
1023
625
326
173
92
672
1023
1023
1023
636
332
176
94
688
1023
1023
1023
630
329
174
93
712
1023
1023
1023
631
330
175
96
752
1023
1023
1023
647
337
179
115
808
1023
1023
1023
671
350
185
118
807
1023
1023
1023
642
335
177
136
844
1023
1023
1023
669
349
185
199
910
1023
1023
1023
705
368
195
290
974
1023
1023
1023
764
398
210
112
60
33
18
11
6
4
3
2
2
1
1
1
1
1
1
1
1
1
1
1
1
1
1
1
1
1
1
1
1
1
1
1
1
1
1
1
1
1
0
1
1
1
1
1
3
114
207
197
130
95
192
399
649
865
926
824
656
541
616
861
1023
1023
1023
1023
1023
1023
1023
1023
1023
1023
1023
1023
1023
1023
1023
1023
972
653
347
184
99
53
29
16
10
6
4
3
2
2
1
1
1
1
1
1
1
2
66
199
359
504
594
631
644
668
745
869
1016
1023
1023
1023
1023
1023
1023
1023
1023
1023
1023
1023
1023
1023
1023
1023
1023
1023
1023
1023
1023
1023
1023
1023
1023
1023
1023
1023
1023
1023
1023
1023
1023
1023
1023
1023
1023
1023
1023
1023
1023
1023
1023
1023
1023
1023
1023
1023
1023
1023
1023
1023
1023
1023
1023
1023
1023
1023
1023
1023
1023
1023
1023
1023
1023
1023
1023
1023
1023
1023
1023
1023
1023
1023
1023
1023
1023
1023
1023
1023
1023
1023
1023
1023
1023
1023
1023
1023
1023
1023
1023
1023
1023
1023
1023
1023
1023
1023
1023
1023
1023
1023
1023
1023
1023
1023
1023
1023
1023
1023
1023
1023
1023
1023
1023
1023
1023
1023
1023
1023
1023
1023
1023
1023
1023
1023
1023
1023
1023
1023
1023
1023
1023
1023
1023
1023
1023
1023
1023
1023
1023
1023
1023
1023
1023
1023
1023
1023
1023
1023
1023
1023
1023
1023
1023
1023
1023
1023
1023
1023
1023
1023
1023
1023
1023
1023
1023
1023
1023
1023
1023
1023
1023
1023
1023
1023
1023
1023
1023
1023
1023
1023
1023
1023
1023
1023
1023
1023
1023
1023
1023
1023
1023
1023
1023
1023
1023
1023
1023
1023
1023
1023
1023
1023
1023
1023
1023
1023
1023
1023
1023
1023
1023
1023
1023
1023
1023
1023
1023
1023
1023
1023
1023
1023
1023
1023
1023
1023
1023
1023
1023
1023
1023
1023
1023
1023
1023
1023
1023
1023
1023
1023
1023
1023
1023
1023
1023
1023
1023
1023
1023
1023
1023
1023
1023
1023
1023
1023
1023
1023
1023
1023
1023
1023
1023
1023
1023
1023
1023
1023
1023
1023
1023
1023
1023
1023
1023
1023
1023
1023
1023
1023
1023
1023
1023
1023
1023
1023
1023
1023
1023
1023
1023
1019
1023
1023
1023
1023
1023
1005
975
971
992
1020
1023
1023
995
954
926
924
946
975
996
986
951
911
881
878
900
930
950
941
907
866
837
836
860
891
911
901
866
825
797
797
820
850
870
860
826
786
757
756
781
812
832
821
785
744
716
717
742
772
791
781
745
705
677
679
705
735
753
741
704
663
636
639
666
696
715
703
665
625
599
602
630
664
685
673
635
593
566
571
600
633
653
639
601
559
533
539
569
603
623
608
568
525
498
505
538
574
595
579
538
493
467
476
510
547
568
551
508
462
435
444
480
519
539
520
476
429
403
414
452
490
509
489
443
394
367
379
418
460
482
463
416
367
341
354
395
439
461
440
393
344
317
332
375
418
439
416
366
318
294
312
356
399
419
395
345
298
276
295
341
385
404
380
330
283
262
284
330
373
392
367
317
268
246
269
315
358
375
350
299
251
232
255
302
346
362
333
280
232
213
238
287
331
346
317
265
217
200
228
277
320
334
303
250
202
186
214
266
312
326
296
242
193
177
207
257
301
313
282
229
184
169
198
247
290
302
270
218
174
161
190
237
279
289
259
210
170
160
188
233
269
276
247
206
173
167
192
228
255
258
234
204
181
178
196
220
236
237
224
208
199
200
208
213
215
211
207
210
217
223
219
206
190
182
191
215
238
246
228
194
162
151
174
217
256
264
231
177
131
120
156
217
270
281
236
167
110
97
144
218
280
291
236
153
85
72
128
213
282
291
227
136
69
53
116
215
295
307
233
128
65
40
108
227
327
343
248
128
65
35
111
271
410
431
297
150
77
40
123
364
591
633
412
209
108
56
283
906
1023
1023
1023
604
316
174
785
1023
1023
1023
1023
967
499
264
141
75
41
23
13
8
5
3
2
2
1
1
1
1
1
1
1
1
1
1
1
1
1
1
446
1023
1023
1023
1023
1023
1023
1023
1023
1023
1023
1023
1023
1023
1023
1023
1023
1023
1023
1023
1023
1023
1023
1023
1023
1023
1023
1023
1023
1023
1023
1023
1023
1023
1023
1023
1023
1023
1023
1023
1023
1023
1023
1023
1023
1023
1023
1023
1023
1023
1023
1023
1023
1023
1023
1023
1023
1023
1023
1023
1023
1023
1023
1023
1023
1023
1023
1023
1023
1023
1023
1023
1023
1023
1023
1023
1023
1023
1023
1023
1023
1023
1023
1009
523
279
150
81
44
423
909
467
240
126
67
36
20
77
534
266
136
70
37
20
11
98
605
303
155
80
42
22
12
129
668
337
172
89
47
25
14
159
712
361
185
96
50
27
15
188
740
377
193
100
52
28
15
216
763
390
199
104
54
29
16
244
783
400
205
107
56
30
16
268
792
404
207
108
56
30
16
290
796
404
207
108
56
30
16
314
801
406
208
109
57
30
16
341
810
410
210
110
58
31
17
368
821
416
214
111
58
31
17
393
832
421
216
113
59
31
17
420
845
429
220
115
60
32
17
447
860
437
224
117
62
32
18
473
869
441
227
118
62
33
18
496
878
445
229
120
63
33
18
523
892
453
233
122
64
34
18
557
922
470
242
127
66
35
19
589
945
483
249
130
69
36
20
618
963
493
254
133
70
37
20
643
977
500
258
135
71
38
20
662
981
502
259
136
71
38
21
679
979
499
258
135
71
38
22
694
975
496
256
134
71
38
24
708
969
492
254
133
70
37
27
723
966
489
252
133
70
37
32
740
968
490
253
133
70
37
39
758
972
491
254
133
70
37
49
778
979
495
256
134
71
38
58
794
980
495
256
134
71
38
69
809
980
494
256
134
71
38
78
822
971
489
253
133
70
37
87
832
956
481
249
131
69
37
94
839
935
470
243
128
67
36
101
848
919
462
239
125
66
35
117
863
924
464
240
126
66
35
145
885
950
478
247
130
69
36
192
919
1000
504
261
137
73
39
271
962
1023
544
282
148
78
42
345
1000
1023
574
297
156
83
44
425
1023
1023
617
319
168
89
48
482
1023
1023
638
330
174
92
49
541
1023
1023
657
340
179
95
51
586
1023
1023
674
349
184
97
52
638
1023
1023
703
364
192
102
55
717
1023
1023
761
393
207
110
79
791
1023
1023
809
417
220
117
111
838
1023
1023
834
430
227
120
151
881
1023
1023
862
444
234
124
225
937
1023
1023
920
473
249
132
324
993
1023
1023
959
492
260
138
420
1023
1023
1023
998
511
270
143
479
1023
1023
1023
999
512
270
144
534
1023
1023
1023
998
512
270
144
550
1023
1023
1023
975
501
264
141
547
1023
1023
1023
958
492
260
138
551
1023
1023
1023
936
482
254
135
568
1023
1023
1023
925
476
251
134
586
1023
1023
1023
920
474
250
133
669
1023
1023
1023
918
473
250
133
636
1023
1023
1023
893
461
243
130
653
1023
1023
1023
881
455
240
128
675
1023
1023
1023
865
448
236
126
671
1023
1023
1023
848
440
232
124
694
1023
1023
1023
838
435
229
122
709
1023
1023
1023
813
422
223
119
591
1023
1023
1023
733
382
202
108
458
1023
1023
1023
635
332
175
94
309
984
1023
1023
547
287
152
81
167
896
1023
906
462
242
128
68
77
808
1023
758
389
204
108
57
37
731
1023
633
326
171
90
48
26
675
1023
552
285
149
79
42
23
667
1003
524
270
142
74
40
22
674
987
512
264
138
73
39
21
685
981
506
261
137
72
38
22
700
975
501
259
136
71
38
24
714
976
500
258
136
71
38
28
736
987
506
261
137
72
38
34
753
989
506
262
137
72
39
41
768
989
506
261
137
72
39
48
785
995
508
262
138
73
39
59
802
1001
510
265
139
73
39
71
819
1008
515
267
140
74
39
85
835
1013
517
268
140
74
39
100
851
1018
520
269
141
75
40
122
870
1023
526
273
143
75
40
138
883
1023
525
272
143
75
40
157
898
1023
525
272
143
76
40
178
912
1023
525
273
143
76
40
204
928
1023
530
275
144
76
41
232
944
1023
533
277
145
77
41
263
958
1023
535
278
146
77
41
287
972
1023
536
279
146
77
41
313
986
1023
536
279
146
78
41
339
998
1023
536
279
146
77
41
360
1009
1023
533
277
146
77
41
382
1020
1023
532
276
145
77
41
401
1023
1023
528
274
144
76
41
421
1023
1023
525
273
144
76
41
438
1023
1023
520
271
142
75
40
454
1023
1021
516
269
141
75
40
472
1023
1015
512
267
140
74
40
493
1023
1014
511
267
140
74
40
511
1023
1009
509
265
140
74
40
529
1023
1004
506
264
139
73
39
548
1023
1000
504
263
138
73
39
567
1023
996
502
262
138
73
39
585
1023
991
499
261
137
73
39
600
1023
981
495
258
136
72
39
614
1023
974
492
257
135
72
38
629
1023
966
488
254
134
71
38
644
1023
958
484
253
133
71
38
660
1023
953
482
252
133
70
38
677
1023
948
480
250
132
70
38
691
1023
940
476
248
131
69
37
705
1023
928
471
246
130
69
38
720
1023
923
468
244
129
68
40
735
1023
918
466
243
128
68
43
748
1023
909
462
241
127
68
47
763
1023
905
460
240
127
67
53
778
1023
899
457
239
126
67
60
792
1023
893
454
238
125
67
67
804
1023
887
451
236
125
66
76
818
1023
880
448
235
124
66
85
830
1023
874
445
233
123
65
96
842
1023
868
443
232
122
65
108
855
1023
862
440
230
121
65
122
868
1023
855
436
229
121
64
133
878
1023
845
432
226
119
64
148
889
1023
839
429
225
119
63
163
901
1023
830
424
223
117
62
179
912
1023
824
422
221
117
62
196
923
1023
816
418
219
116
61
215
933
1023
808
414
217
115
61
232
943
1023
799
410
215
113
60
252
954
1023
792
406
213
112
60
272
964
1023
784
402
211
111
59
292
974
1023
777
399
209
111
59
312
984
1023
769
395
207
110
58
334
994
1023
763
392
206
109
58
353
1004
1023
756
389
204
108
58
371
1014
1023
747
385
202
107
57
388
1022
1023
739
380
200
106
56
407
1023
1023
732
377
198
105
56
427
1023
1023
727
374
197
104
56
445
1023
1023
721
372
195
103
55
461
1023
1023
713
367
193
102
55
477
1023
1023
705
364
191
101
54
493
1023
1023
698
360
189
100
54
510
1023
1023
690
356
187
99
53
526
1023
1023
683
353
186
98
53
540
1023
1023
676
349
184
97
52
555
1023
1023
668
345
182
96
51
572
1023
1023
662
342
180
95
51
585
1023
1023
653
338
178
94
50
600
1023
1023
647
335
176
93
50
614
1023
1023
640
332
175
92
50
631
1023
1023
635
329
173
92
49
645
1023
1023
628
326
172
91
49
658
1023
1023
621
322
170
90
48
671
1023
1023
613
318
168
89
48
685
1023
1023
607
315
166
88
47
698
1023
1023
601
312
164
87
47
711
1023
1023
595
309
163
86
47
725
1023
1023
588
306
161
85
48
739
1023
1023
584
304
160
85
50
751
1023
1023
576
300
158
84
53
763
1023
1023
571
297
157
83
57
775
1023
1023
564
294
155
82
61
787
1023
1023
558
290
153
81
67
799
1023
1023
552
287
152
80
74
811
1023
1023
546
285
150
80
81
822
1023
1023
540
282
149
79
90
834
1023
1023
534
279
147
78
98
845
1023
1023
529
276
146
77
110
857
1023
1023
523
273
144
76
121
868
1023
1018
517
270
143
76
134
879
1023
1008
512
267
141
75
146
889
1023
996
505
264
140
74
161
900
1023
985
500
262
138
73
174
910
1023
972
494
258
137
72
188
919
1023
959
488
255
135
72
206
930
1023
949
484
253
134
71
221
939
1023
935
477
249
132
70
238
948
1023
923
471
246
130
69
255
957
1023
911
465
243
129
68
274
967
1023
899
460
240
127
68
293
976
1023
890
455
238
126
67
312
986
1023
878
449
235
125
66
329
994
1023
866
444
232
123
65
348
1004
1023
857
439
230
122
65
365
1012
1023
847
435
228
120
64
385
1022
1023
838
430
225
119
63
401
1023
1023
828
425
223
118
63
418
1023
1023
819
421
221
117
62
434
1023
1023
809
416
218
115
61
450
1023
1023
799
412
216
114
61
466
1023
1023
790
407
213
113
60
483
1023
1023
781
403
211
112
60
499
1023
1023
772
398
209
111
59
515
1023
1023
762
393
206
110
58
530
1023
1023
753
389
204
108
58
544
1023
1023
744
384
202
107
57
559
1023
1023
734
379
199
106
56
574
1023
1023
726
375
197
104
56
587
1023
1023
716
370
194
103
55
600
1023
1023
707
366
192
102
54
614
1023
1023
698
361
190
101
54
629
1023
1023
691
358
188
100
53
644
1023
1023
683
354
186
99
53
657
1023
1023
674
350
184
97
52
669
1023
1023
666
346
181
96
51
684
1023
1023
659
342
180
95
51
696
1023
1023
651
338
178
94
50
709
1023
1023
644
334
176
93
50
720
1023
1023
635
330
174
92
51
732
1023
1023
626
326
171
91
52
744
1023
1023
619
322
170
90
55
758
1023
1023
614
320
168
89
58
769
1023
1023
606
315
166
88
61
781
1023
1023
599
312
164
87
67
793
1023
1023
593
309
163
86
73
805
1023
1023
587
306
161
85
80
817
1023
1023
580
302
159
84
90
831
1023
1023
578
302
159
84
106
849
1023
1023
578
302
159
84
118
862
1023
1023
573
299
158
84
135
877
1023
1023
573
299
158
84
153
892
1023
1023
569
297
157
83
167
903
1023
1023
562
294
155
82
193
921
1023
1023
566
296
156
83
239
947
1023
1023
579
302
159
85
277
967
1023
1023
581
303
160
85
301
980
1023
1023
576
301
159
84
345
1001
1023
1023
588
307
162
86
399
1023
1023
1023
601
314
166
88
430
1023
1023
1023
631
760
994
1023
1023
1023
1023
1023
1023
1023
1023
1023
1023
1023
1023
1023
1023
1023
1023
1023
1023
1023
1023
1023
1023
1023
1023
1023
1023
1023
1023
1023
1023
1023
1023
1023
1023
1023
1023
1023
1023
1023
1023
1023
1023
1023
1023
1023
1023
1023
1023
1023
1023
1023
1023
1023
1023
1023
1023
1023
1023
1023
1023
1023
1023
1023
1023
1023
1023
1023
1013
997
999
990
942
852
747
655
603
598
611
610
571
495
404
325
284
287
308
318
289
222
144
78
46
54
80
95
74
37
20
11
7
4
3
2
2
1
1
1
1
1
1
1
1
1
1
1
1
1
1
1
1
1
1
1
1
1
1
1
1
1
1
1
1
1
1
1
1
1
1
1
0
1
1
1
1
1
1
1
1
1
1
1
1
0
0
1
1
1
1
0
0
1
1
1
1
1
1
0
1
1
0
0
0
1
0
1
1
0
1
0
1
1
1
0
1
1
1
0
1
0
1
0
0
0
1
1
1
1
1
0
1
1
0
1
1
0
0
1
1
1
0
1
1
0
1
0
1
1
1
1
1
1
1
1
1
1
1
1
1
1
1
1
1
1
1
1
1
0
1
1
1
1
0
0
1
0
1
1
1
1
0
0
0
1
1
1
1
1
0
1
1
1
1
4
2
1
1
1
1
1
13
36
24
12
6
3
2
5
38
65
49
24
12
6
4
26
72
99
82
42
21
11
9
46
97
126
109
63
32
16
29
81
133
160
142
97
54
36
63
117
169
194
175
128
83
66
93
147
198
224
207
160
117
99
126
178
228
250
229
183
140
121
146
194
240
259
236
192
151
136
163
210
255
277
257
215
177
165
192
242
287
306
286
244
207
194
222
270
314
333
312
272
235
222
247
293
335
352
330
291
254
241
267
312
352
368
347
308
273
260
286
330
371
388
368
329
294
283
310
353
392
408
387
348
313
302
328
372
412
427
405
366
332
322
348
391
429
444
422
383
349
341
369
412
449
463
441
403
369
360
386
428
466
477
453
413
379
369
396
439
476
487
462
423
390
382
408
451
488
499
475
436
402
394
422
463
500
510
484
444
411
403
432
475
512
521
496
457
422
414
443
487
524
534
509
469
436
429
458
501
539
547
521
481
447
443
473
516
552
559
531
491
457
451
480
524
560
568
540
497
464
460
491
535
571
578
550
507
473
470
500
544
580
586
555
513
480
477
511
556
592
597
567
523
488
485
519
564
601
605
573
528
493
489
522
567
603
607
576
531
497
495
530
577
612
613
579
535
500
500
535
580
615
618
585
542
508
508
544
589
622
623
589
546
514
515
552
600
636
638
604
560
526
529
569
619
657
659
622
571
534
540
588
648
693
695
653
600
560
566
618
681
725
722
674
615
574
579
631
691
732
726
675
614
572
579
630
690
729
721
668
606
565
575
629
691
734
726
670
605
563
572
629
695
739
729
669
599
552
561
621
692
737
722
655
581
534
546
610
684
731
718
650
576
529
544
614
689
737
722
655
581
535
552
621
696
741
725
659
588
547
566
634
705
746
729
664
597
558
575
635
697
733
720
671
623
598
611
642
656
660
665
673
680
682
674
659
643
634
637
646
644
576
303
157
82
44
24
13
8
5
3
2
2
1
1
1
1
1
1
1
1
1
1
49
475
262
133
68
36
19
10
6
596
1023
948
479
250
132
70
37
680
1023
1023
523
273
144
76
41
707
1023
1023
528
276
145
77
41
692
1023
976
493
258
136
72
41
735
1023
1023
523
273
144
76
46
750
1023
1023
520
271
143
76
49
762
1023
1018
516
270
142
76
55
777
1023
1014
514
269
142
75
61
791
1023
1009
511
267
141
75
67
802
1023
997
505
264
139
74
75
815
1023
993
503
263
139
74
83
827
1023
984
498
261
138
73
92
837
1023
973
493
258
136
72
103
849
1023
966
489
256
135
72
112
859
1023
956
485
254
134
71
125
871
1023
949
482
252
133
71
143
885
1023
949
482
252
133
71
162
900
1023
946
481
252
133
71
176
910
1023
936
476
249
132
70
194
922
1023
930
473
248
131
69
214
934
1023
923
470
246
130
69
233
944
1023
918
467
245
129
69
255
956
1023
912
465
243
129
68
273
965
1023
900
459
240
127
68
292
974
1023
891
455
238
126
67
305
981
1023
877
448
235
124
66
328
992
1023
871
445
234
123
66
344
1000
1023
862
441
231
122
65
362
1009
1023
854
437
229
121
64
380
1018
1023
846
433
227
120
64
399
1023
1023
838
430
225
119
64
416
1023
1023
829
425
223
118
63
431
1023
1023
820
421
221
117
62
446
1023
1023
810
416
218
115
62
461
1023
1023
800
411
216
114
61
475
1023
1023
790
406
213
113
60
489
1023
1023
780
401
211
111
60
502
1023
1023
769
396
208
110
59
519
1023
1023
763
393
207
109
59
536
1023
1023
756
390
205
108
58
551
1023
1023
749
386
203
108
57
564
1023
1023
739
381
200
106
57
579
1023
1023
732
378
199
105
56
592
1023
1023
723
373
196
104
56
605
1023
1023
714
368
194
103
55
615
1023
1023
704
363
191
101
54
627
1023
1023
694
358
189
100
54
638
1023
1023
685
354
186
99
53
653
1023
1023
680
351
185
98
52
668
1023
1023
675
349
184
97
52
682
1023
1023
667
345
182
96
52
693
1023
1023
658
341
180
95
51
704
1023
1023
649
336
177
94
50
716
1023
1023
642
333
175
93
50
727
1023
1023
635
329
174
92
52
742
1023
1023
630
327
172
91
53
752
1023
1023
623
324
171
90
56
764
1023
1023
616
320
169
89
60
776
1023
1023
610
317
167
89
65
790
1023
1023
607
315
166
88
71
803
1023
1023
602
313
165
87
79
816
1023
1023
596
310
164
87
86
827
1023
1023
591
307
162
86
95
839
1023
1023
585
304
161
85
104
849
1023
1023
578
301
159
84
113
858
1023
1023
572
298
157
83
122
868
1023
1023
565
294
156
82
133
878
1023
1023
558
291
154
81
144
887
1023
1023
552
288
152
80
157
897
1023
1023
546
285
151
80
168
905
1023
1023
539
281
149
79
182
915
1023
1023
533
279
147
78
195
924
1023
1023
527
275
145
77
209
932
1023
1023
520
272
144
76
222
940
1023
1008
512
268
142
75
238
948
1023
995
506
265
140
74
253
957
1023
982
499
261
138
73
270
965
1023
969
493
258
137
72
286
973
1023
955
487
255
135
71
304
982
1023
944
482
252
134
71
320
990
1023
932
476
249
132
70
337
998
1023
920
470
246
130
69
352
1006
1023
908
464
243
129
68
369
1014
1023
898
459
240
127
68
384
1022
1023
885
453
237
126
67
399
1023
1023
875
448
235
124
66
412
1023
1023
861
442
231
123
65
427
1023
1023
852
437
229
122
65
442
1023
1023
841
432
226
120
64
461
1023
1023
833
428
224
119
63
475
1023
1023
822
423
222
117
63
490
1023
1023
814
419
220
116
62
506
1023
1023
804
414
217
115
61
521
1023
1023
795
410
215
114
61
535
1023
1023
785
405
212
112
60
549
1023
1023
777
401
210
111
59
562
1023
1023
768
396
208
110
59
576
1023
1023
759
392
206
109
58
589
1023
1023
750
388
203
108
57
603
1023
1023
742
384
201
107
57
617
1023
1023
734
380
199
106
56
631
1023
1023
728
376
198
105
56
643
1023
1023
720
373
196
104
55
657
1023
1023
710
368
193
102
55
668
1023
1023
702
363
191
101
54
681
1023
1023
695
360
189
100
54
693
1023
1023
684
355
187
99
53
704
1023
1023
676
351
184
98
52
715
1023
1023
668
346
182
97
52
727
1023
1023
661
343
180
96
53
737
1023
1023
653
339
178
95
54
748
1023
1023
645
335
176
93
56
759
1023
1023
637
331
174
92
59
770
1023
1023
629
327
172
91
63
780
1023
1023
621
323
170
90
67
791
1023
1023
615
320
169
89
72
801
1023
1023
607
316
167
88
77
812
1023
1023
600
312
164
87
84
821
1023
1023
592
309
162
86
91
832
1023
1023
585
305
161
85
98
841
1023
1023
579
302
159
84
107
851
1023
1023
571
298
157
83
117
861
1023
1023
565
295
155
82
126
870
1023
1023
557
291
154
81
137
879
1023
1023
551
288
152
80
148
889
1023
1023
545
285
150
80
162
900
1023
1023
540
282
149
79
175
909
1023
1023
534
279
147
78
190
919
1023
1023
527
276
146
77
203
927
1023
1023
521
273
144
76
219
936
1023
1017
516
270
143
76
235
945
1023
1005
509
267
141
75
253
955
1023
994
504
264
140
74
270
963
1023
983
499
262
138
73
287
972
1023
971
493
259
137
73
304
980
1023
959
488
256
135
72
325
991
1023
949
483
253
134
71
340
998
1023
937
477
250
132
70
355
1006
1023
924
471
247
131
69
370
1013
1023
912
465
244
129
69
388
1022
1023
904
461
242
128
68
404
1023
1023
891
455
239
126
67
417
1023
1023
879
449
236
125
66
432
1023
1023
867
444
233
123
66
446
1023
1023
857
439
230
122
65
460
1023
1023
846
434
228
120
64
476
1023
1023
834
428
225
119
63
489
1023
1023
824
423
222
117
63
505
1023
1023
814
418
220
116
62
519
1023
1023
803
413
217
115
61
532
1023
1023
793
408
214
113
61
546
1023
1023
783
403
212
112
60
559
1023
1023
773
398
209
111
59
572
1023
1023
764
393
207
110
58
585
1023
1023
753
388
204
108
58
597
1023
1023
744
384
202
107
57
611
1023
1023
736
380
200
106
57
623
1023
1023
727
375
197
104
56
637
1023
1023
719
371
195
103
55
648
1023
1023
710
367
193
102
55
660
1023
1023
701
362
191
101
54
671
1023
1023
691
357
188
100
53
684
1023
1023
683
353
186
98
53
695
1023
1023
675
349
184
97
52
708
1023
1023
668
346
182
96
52
721
1023
1023
661
343
180
96
52
732
1023
1023
654
339
178
94
53
743
1023
1023
646
335
177
94
55
755
1023
1023
640
332
175
93
57
765
1023
1023
632
328
173
92
61
778
1023
1023
626
325
171
91
65
789
1023
1023
619
321
170
90
70
800
1023
1023
611
318
168
89
76
810
1023
1023
603
314
166
88
81
820
1023
1023
596
310
164
86
88
830
1023
1023
589
306
162
86
95
839
1023
1023
581
303
160
84
103
848
1023
1023
574
299
158
84
113
859
1023
1023
568
296
156
83
124
870
1023
1023
561
293
155
82
134
879
1023
1023
554
289
153
81
144
887
1023
1023
547
285
151
80
155
896
1023
1023
541
282
149
79
168
906
1023
1023
534
279
147
78
182
915
1023
1023
528
276
146
77
194
923
1023
1023
521
272
144
76
208
932
1023
1013
515
269
142
75
226
942
1023
1003
510
267
141
75
241
950
1023
990
503
263
139
74
258
959
1023
979
498
260
138
73
277
969
1023
968
493
258
136
72
293
977
1023
956
487
255
135
71
309
984
1023
943
481
251
133
71
326
993
1023
932
476
249
132
70
341
1000
1023
919
469
246
130
69
357
1008
1023
909
465
243
129
68
373
1017
1023
899
460
241
127
68
391
1023
1023
887
454
238
126
67
405
1023
1023
876
449
235
125
66
422
1023
1023
866
444
233
123
65
435
1023
1023
855
439
230
122
65
451
1023
1023
846
434
228
121
64
467
1023
1023
836
430
225
119
63
482
1023
1023
826
425
223
118
63
495
1023
1023
815
420
220
116
62
510
1023
1023
805
415
217
115
61
524
1023
1023
795
410
215
114
61
538
1023
1023
787
405
213
113
60
554
1023
1023
779
402
211
112
60
567
1023
1023
770
397
208
111
59
581
1023
1023
762
393
206
110
58
598
1023
1023
756
390
205
109
58
611
1023
1023
747
386
203
108
57
624
1023
1023
738
382
200
106
57
636
1023
1023
729
377
198
105
56
648
1023
1023
720
373
196
104
55
661
1023
1023
713
369
194
103
55
677
1023
1023
706
366
192
102
54
688
1023
1023
696
361
190
101
54
700
1023
1023
688
356
187
99
53
712
1023
1023
679
352
185
98
53
722
1023
1023
669
347
183
97
53
733
1023
1023
660
343
180
95
54
743
1023
1023
651
338
178
94
55
753
1023
1023
642
334
176
93
57
763
1023
1023
634
330
174
92
60
773
1023
1023
625
325
171
91
64
784
1023
1023
618
321
169
90
69
795
1023
1023
612
319
168
89
74
806
1023
1023
605
315
166
88
80
816
1023
1023
597
311
164
87
86
824
1023
1023
588
307
161
86
93
834
1023
1023
580
303
160
84
101
844
1023
1023
574
299
158
84
110
854
1023
1023
567
296
156
83
122
866
1023
1023
562
293
155
82
131
874
1023
1023
555
290
153
81
142
883
1023
1023
548
287
151
80
153
892
1023
1023
541
283
149
79
165
902
1023
1023
535
280
148
78
179
912
1023
1023
528
276
146
77
194
922
1023
1023
523
274
144
77
210
931
1023
1021
518
271
143
76
224
940
1023
1008
511
268
141
75
240
948
1023
995
504
264
140
74
257
957
1023
984
499
261
138
73
273
965
1023
971
493
258
137
72
292
975
1023
959
487
256
135
72
309
983
1023
948
482
253
134
71
326
992
1023
936
477
250
132
70
343
1000
1023
924
471
247
131
69
358
1008
1023
914
466
244
129
69
375
1016
1023
903
461
241
128
68
392
1023
1023
891
455
239
126
67
408
1023
1023
881
450
236
125
66
424
1023
1023
871
446
234
124
66
437
1023
1023
859
440
231
122
65
451
1023
1023
847
434
228
121
64
465
1023
1023
836
429
225
119
63
480
1023
1023
826
424
223
118
63
495
1023
1023
816
419
220
116
62
510
1023
1023
807
415
218
115
61
527
1023
1023
798
410
215
114
61
541
1023
1023
787
405
213
113
60
555
1023
1023
779
401
211
111
59
569
1023
1023
769
396
208
110
59
583
1023
1023
761
392
206
109
58
597
1023
1023
752
388
204
108
58
611
1023
1023
743
383
202
107
57
624
1023
1023
735
379
200
106
56
638
1023
1023
726
375
197
104
56
648
1023
1023
717
370
195
103
55
662
1023
1023
709
366
193
102
55
674
1023
1023
700
362
191
101
54
687
1023
1023
693
358
189
100
53
697
1023
1023
683
353
186
98
53
709
1023
1023
674
349
184
97
52
720
1023
1023
665
344
181
96
52
731
1023
1023
658
341
180
95
53
743
1023
1023
650
337
178
94
55
754
1023
1023
642
333
175
93
57
764
1023
1023
633
329
173
92
60
775
1023
1023
626
325
172
91
65
787
1023
1023
620
322
170
90
69
798
1023
1023
613
318
168
89
75
809
1023
1023
605
315
166
88
81
820
1023
1023
598
311
164
87
88
829
1023
1023
590
307
162
86
96
840
1023
1023
584
304
160
85
105
850
1023
1023
576
300
158
84
115
861
1023
1023
570
297
157
83
125
870
1023
1023
563
294
155
82
136
880
1023
1023
557
290
153
81
147
889
1023
1023
551
287
152
80
159
899
1023
1023
543
284
150
79
171
908
1023
1023
537
280
148
78
184
916
1023
1023
531
277
146
78
198
926
1023
1023
524
274
145
77
212
934
1023
1019
518
271
143
76
227
943
1023
1007
512
268
142
75
243
952
1023
995
505
264
140
74
259
960
1023
981
499
261
138
73
278
969
1023
970
494
258
137
72
296
978
1023
957
488
255
135
71
312
986
1023
945
482
252
133
71
329
994
1023
933
476
249
132
70
346
1003
1023
923
471
246
131
69
363
1012
1023
910
465
243
129
68
381
1020
1023
900
460
241
128
68
396
1023
1023
888
455
238
126
67
413
1023
1023
878
450
236
125
66
428
1023
1023
867
445
233
123
65
443
1023
1023
857
440
230
122
65
458
1023
1023
846
435
228
121
64
473
1023
1023
835
429
225
119
63
486
1023
1023
824
424
222
118
63
501
1023
1023
814
419
220
116
62
514
1023
1023
803
414
217
115
61
528
1023
1023
793
409
214
113
60
542
1023
1023
784
404
212
112
60
557
1023
1023
776
400
210
111
59
569
1023
1023
765
395
207
110
59
583
1023
1023
755
390
205
108
58
596
1023
1023
745
385
202
107
57
609
1023
1023
736
380
200
106
57
624
1023
1023
728
377
198
105
56
635
1023
1023
719
372
195
104
55
648
1023
1023
711
368
193
102
55
661
1023
1023
705
365
192
102
54
674
1023
1023
696
360
189
100
54
686
1023
1023
688
356
187
99
53
700
1023
1023
680
352
185
98
52
711
1023
1023
672
349
183
97
52
723
1023
1023
664
345
181
96
53
733
1023
1023
656
340
179
95
54
746
1023
1023
648
336
177
94
56
755
1023
1023
640
333
175
93
59
767
1023
1023
633
329
173
92
62
779
1023
1023
625
325
171
91
67
791
1023
1023
618
322
169
90
72
801
1023
1023
611
318
167
89
78
812
1023
1023
604
315
166
88
84
822
1023
1023
596
311
164
87
92
832
1023
1023
589
307
162
86
98
841
1023
1023
581
303
159
84
108
852
1023
1023
575
300
158
84
118
862
1023
1023
568
297
156
83
129
873
1023
1023
562
293
155
82
141
882
1023
1023
555
290
153
81
151
891
1023
1023
548
286
151
80
165
902
1023
1023
542
284
150
79
179
911
1023
1023
536
280
148
78
193
921
1023
1023
529
277
146
77
207
929
1023
1023
523
274
144
77
223
939
1023
1020
517
271
143
76
240
948
1023
1009
511
268
141
75
256
957
1023
995
504
264
140
74
274
965
1023
983
498
261
138
73
289
973
1023
968
492
258
136
72
307
982
1023
957
486
255
135
71
325
991
1023
945
481
252
133
71
340
999
1023
932
475
249
131
70
355
1006
1023
919
469
246
130
69
371
1014
1023
907
463
243
128
68
390
1023
1023
898
459
240
127
68
406
1023
1023
887
453
238
126
67
422
1023
1023
876
448
235
124
66
436
1023
1023
864
442
232
123
65
451
1023
1023
853
437
229
121
65
466
1023
1023
843
432
227
120
64
482
1023
1023
834
428
225
119
63
497
1023
1023
824
423
222
117
63
512
1023
1023
814
418
220
116
62
528
1023
1023
805
414
217
115
61
541
1023
1023
794
408
215
113
60
555
1023
1023
785
404
212
112
60
568
1023
1023
773
398
209
111
59
578
1023
1023
762
393
207
109
58
588
1023
1023
751
387
204
108
57
601
1023
1023
741
382
201
106
57
612
1023
1023
732
377
198
105
56
628
1023
1023
725
374
197
104
56
641
1023
1023
716
370
194
103
55
654
1023
1023
708
366
192
102
54
665
1023
1023
698
361
190
100
54
677
1023
1023
689
356
188
99
53
689
1023
1023
681
352
185
98
52
702
1023
1023
674
349
184
97
52
715
1023
1023
665
344
181
96
52
727
1023
1023
659
341
180
95
53
738
1023
1023
650
337
177
94
54
748
1023
1023
641
333
175
93
56
762
1023
1023
635
330
174
92
59
772
1023
1023
627
326
172
91
63
783
1023
1023
620
322
170
90
66
792
1023
1023
611
318
168
89
72
803
1023
1023
604
314
166
88
77
814
1023
1023
596
310
164
86
84
825
1023
1023
590
307
162
86
92
835
1023
1023
584
304
160
85
101
846
1023
1023
577
300
158
84
110
855
1023
1023
570
297
157
83
119
865
1023
1023
563
293
155
82
130
875
1023
1023
557
290
153
81
141
885
1023
1023
550
287
151
80
153
894
1023
1023
543
283
150
79
166
904
1023
1023
537
280
148
78
178
913
1023
1023
530
276
146
77
192
922
1023
1023
524
274
145
76
206
931
1023
1018
517
270
143
76
220
939
1023
1006
511
267
141
75
237
948
1023
993
504
264
140
74
253
957
1023
982
499
261
138
73
271
966
1023
970
493
258
136
72
289
975
1023
958
488
255
135
72
307
984
1023
946
482
252
134
71
324
992
1023
935
477
249
132
70
340
1000
1023
922
471
246
130
69
355
1008
1023
911
465
243
129
68
373
1016
1023
899
460
241
128
68
387
1023
1023
887
454
238
126
67
403
1023
1023
875
448
235
124
66
418
1023
1023
865
444
232
123
65
433
1023
1023
855
439
230
122
64
448
1023
1023
843
433
227
120
64
463
1023
1023
834
429
225
119
63
479
1023
1023
825
424
222
118
62
493
1023
1023
815
419
220
116
62
508
1023
1023
805
414
217
115
61
523
1023
1023
796
410
215
114
61
536
1023
1023
786
405
212
112
60
551
1023
1023
776
400
210
111
59
564
1023
1023
767
396
208
110
59
578
1023
1023
757
391
205
109
58
592
1023
1023
748
386
203
108
57
605
1023
1023
739
382
200
106
57
618
1023
1023
730
378
198
105
56
631
1023
1023
721
373
196
104
55
644
1023
1023
713
369
194
103
55
655
1023
1023
704
364
191
101
54
669
1023
1023
697
361
190
101
54
680
1023
1023
686
356
187
99
53
691
1023
1023
678
351
185
98
52
705
1023
1023
671
348
183
97
52
716
1023
1023
663
344
181
96
52
728
1023
1023
655
340
179
95
53
740
1023
1023
647
336
177
94
54
750
1023
1023
639
332
175
93
57
763
1023
1023
633
329
173
92
61
775
1023
1023
625
325
171
91
65
786
1023
1023
618
322
169
90
69
797
1023
1023
611
318
168
89
76
808
1023
1023
605
315
166
88
82
818
1023
1023
596
311
164
87
89
829
1023
1023
590
307
162
86
97
839
1023
1023
582
304
160
85
105
849
1023
1023
575
300
158
84
113
857
1023
1023
568
296
156
83
124
867
1023
1023
561
293
154
82
136
878
1023
1023
556
290
153
81
148
888
1023
1023
549
287
151
80
160
898
1023
1023
543
284
150
79
171
906
1023
1023
535
280
148
78
185
916
1023
1023
529
276
146
77
198
924
1023
1023
522
273
144
76
215
934
1023
1019
516
270
143
76
228
942
1023
1005
509
267
141
75
245
951
1023
993
504
264
139
74
262
960
1023
982
498
261
138
73
281
969
1023
972
493
259
137
72
298
977
1023
959
487
256
135
72
316
986
1023
948
482
253
133
71
334
995
1023
938
477
250
132
70
350
1003
1023
925
471
247
131
69
365
1011
1023
913
465
244
129
68
384
1020
1023
903
461
242
128
68
398
1023
1023
890
455
239
126
67
414
1023
1023
879
450
236
125
66
429
1023
1023
868
444
233
123
65
444
1023
1023
858
439
230
122
65
458
1023
1023
845
433
227
120
64
472
1023
1023
835
428
225
119
63
486
1023
1023
824
423
222
117
63
499
1023
1023
814
418
219
116
62
512
1023
1023
803
412
217
114
61
527
1023
1023
794
408
214
113
60
542
1023
1023
783
403
212
112
60
556
1023
1023
775
399
210
111
59
569
1023
1023
764
394
207
110
58
582
1023
1023
756
390
205
108
58
596
1023
1023
747
385
202
107
57
610
1023
1023
738
381
200
106
56
624
1023
1023
730
377
198
105
56
638
1023
1023
721
372
196
104
55
650
1023
1023
713
368
194
102
55
663
1023
1023
704
364
192
101
54
676
1023
1023
696
360
190
100
54
688
1023
1023
688
356
187
99
53
699
1023
1023
679
351
185
98
52
712
1023
1023
671
347
183
97
52
722
1023
1023
662
343
181
95
52
733
1023
1023
653
339
179
94
53
745
1023
1023
646
335
177
93
55
756
1023
1023
639
331
175
92
58
766
1023
1023
630
327
172
91
61
778
1023
1023
623
324
171
90
65
788
1023
1023
616
320
169
89
70
800
1023
1023
608
316
167
88
76
811
1023
1023
601
313
165
87
82
821
1023
1023
593
309
163
86
90
832
1023
1023
587
305
161
85
99
843
1023
1023
581
303
160
84
107
853
1023
1023
575
299
158
83
117
863
1023
1023
568
296
156
83
128
873
1023
1023
561
293
155
82
139
883
1023
1023
556
290
153
81
151
892
1023
1023
549
286
151
80
163
902
1023
1023
542
283
150
79
175
911
1023
1023
535
279
148
78
189
920
1023
1023
529
276
146
77
202
928
1023
1023
523
273
144
76
219
938
1023
1018
517
270
143
76
233
946
1023
1005
510
267
141
75
250
955
1023
993
504
264
140
74
266
963
1023
981
498
261
138
73
283
972
1023
969
493
258
137
72
302
981
1023
957
488
255
135
71
319
990
1023
945
482
252
133
71
335
997
1023
933
476
249
132
70
349
1004
1023
921
470
246
130
69
366
1013
1023
909
465
243
129
68
382
1021
1023
896
458
240
127
67
399
1023
1023
885
453
237
126
66
414
1023
1023
875
448
235
124
66
431
1023
1023
866
444
233
123
65
445
1023
1023
854
438
230
122
64
461
1023
1023
844
433
227
120
64
474
1023
1023
833
428
224
119
63
490
1023
1023
822
423
222
117
62
504
1023
1023
813
418
219
116
62
519
1023
1023
803
414
217
115
61
531
1023
1023
793
408
214
113
60
546
1023
1023
784
404
212
112
60
559
1023
1023
773
399
209
111
59
574
1023
1023
765
395
207
110
58
587
1023
1023
755
390
205
109
58
599
1023
1023
746
385
202
107
57
613
1023
1023
736
381
200
106
56
626
1023
1023
729
377
198
105
56
639
1023
1023
719
372
195
103
55
652
1023
1023
711
368
193
102
55
663
1023
1023
702
363
191
101
54
677
1023
1023
695
360
189
100
53
688
1023
1023
685
355
187
99
53
700
1023
1023
678
352
185
98
52
712
1023
1023
669
347
182
97
52
725
1023
1023
663
344
181
96
53
736
1023
1023
654
340
179
95
54
747
1023
1023
646
336
176
93
56
759
1023
1023
638
332
174
92
59
770
1023
1023
631
328
173
92
63
782
1023
1023
624
325
171
91
67
790
1023
1023
615
320
169
89
72
801
1023
1023
608
317
167
88
78
812
1023
1023
602
314
165
87
84
822
1023
1023
593
309
163
86
92
833
1023
1023
587
306
161
85
100
842
1023
1023
580
302
159
84
109
853
1023
1023
574
299
158
84
118
862
1023
1023
567
296
156
83
129
872
1023
1023
560
293
154
82
140
881
1023
1023
553
289
152
81
152
892
1023
1023
547
286
151
80
165
901
1023
1023
541
283
149
79
177
910
1023
1023
535
280
148
78
190
919
1023
1023
528
276
146
77
205
928
1023
1023
522
273
144
76
222
938
1023
1018
516
270
143
76
237
946
1023
1006
509
267
141
75
254
956
1023
993
503
264
139
74
270
963
1023
980
497
261
138
73
288
972
1023
968
492
258
136
72
306
981
1023
957
486
255
135
71
322
990
1023
943
480
252
133
70
338
998
1023
932
474
249
131
70
352
1004
1023
918
468
245
130
69
370
1013
1023
907
462
242
128
68
386
1021
1023
896
457
240
127
67
402
1023
1023
886
452
237
125
67
417
1023
1023
874
447
235
124
66
429
1023
1023
859
440
231
122
65
440
1023
1023
846
433
228
120
64
454
1023
1023
835
428
225
119
63
470
1023
1023
825
423
222
117
62
483
1023
1023
814
418
219
116
62
499
1023
1023
804
413
217
115
61
513
1023
1023
795
409
215
114
60
527
1023
1023
787
405
213
112
60
542
1023
1023
776
400
210
111
59
557
1023
1023
768
396
208
110
59
570
1023
1023
758
391
206
109
58
584
1023
1023
750
386
203
107
57
596
1023
1023
740
382
201
106
57
610
1023
1023
731
377
198
105
56
621
1023
1023
721
372
196
103
55
634
1023
1023
713
368
194
102
55
646
1023
1023
703
363
191
101
54
661
1023
1023
698
360
190
100
54
672
1023
1023
688
356
187
99
53
685
1023
1023
681
352
185
98
52
698
1023
1023
672
348
183
97
52
709
1023
1023
665
344
181
96
51
721
1023
1023
657
340
179
95
52
732
1023
1023
649
336
177
94
53
743
1023
1023
642
333
175
93
55
756
1023
1023
634
329
174
92
57
767
1023
1023
626
325
172
91
61
778
1023
1023
620
322
170
90
65
789
1023
1023
612
318
168
89
70
799
1023
1023
605
315
166
88
76
812
1023
1023
598
311
164
87
82
822
1023
1023
590
307
162
86
89
831
1023
1023
582
303
160
85
97
842
1023
1023
577
300
158
84
107
852
1023
1023
571
297
157
83
116
862
1023
1023
564
294
155
82
126
871
1023
1023
555
289
153
81
136
880
1023
1023
549
286
151
80
148
890
1023
1023
542
283
150
79
161
900
1023
1023
537
280
148
78
173
909
1023
1023
530
277
146
77
188
919
1023
1023
524
274
145
76
204
929
1023
1021
519
271
143
76
221
939
1023
1010
513
268
142
75
238
948
1023
999
507
265
140
74
255
958
1023
986
501
262
139
73
273
967
1023
973
495
259
137
72
290
975
1023
961
489
256
135
72
306
983
1023
947
483
252
134
71
324
992
1023
935
477
249
132
70
340
1000
1023
926
472
247
131
69
355
1008
1023
914
467
244
129
68
375
1017
1023
904
462
242
128
68
391
1023
1023
893
457
239
127
67
407
1023
1023
881
451
236
125
66
423
1023
1023
872
447
234
124
66
438
1023
1023
859
441
231
122
65
452
1023
1023
848
435
228
121
64
467
1023
1023
837
430
225
119
63
483
1023
1023
827
425
223
118
63
497
1023
1023
817
420
220
117
62
513
1023
1023
808
416
218
115
61
526
1023
1023
798
411
216
114
61
541
1023
1023
789
407
213
113
60
556
1023
1023
780
402
211
112
59
571
1023
1023
771
398
208
111
59
584
1023
1023
761
393
206
109
58
596
1023
1023
751
388
204
108
57
611
1023
1023
742
384
201
107
57
623
1023
1023
732
379
199
105
56
636
1023
1023
723
374
196
104
55
649
1023
1023
714
369
194
103
55
661
1023
1023
705
365
192
102
54
674
1023
1023
696
361
190
100
53
687
1023
1023
689
357
188
99
53
698
1023
1023
680
353
185
98
52
711
1023
1023
671
348
183
97
52
723
1023
1023
664
345
181
96
53
735
1023
1023
656
341
179
95
54
746
1023
1023
648
336
177
94
56
758
1023
1023
641
333
175
93
59
769
1023
1023
633
329
173
92
63
780
1023
1023
626
326
171
91
67
791
1023
1023
618
322
169
90
73
803
1023
1023
612
319
168
89
79
814
1023
1023
605
315
166
88
87
826
1023
1023
598
311
164
87
95
836
1023
1023
591
308
162
86
104
847
1023
1023
585
305
161
85
113
857
1023
1023
577
301
159
84
123
867
1023
1023
571
298
157
83
135
877
1023
1023
563
294
155
82
146
887
1023
1023
556
290
153
81
159
897
1023
1023
549
287
151
80
171
906
1023
1023
543
284
150
79
184
915
1023
1023
536
280
148
78
197
923
1023
1023
529
277
146
77
212
932
1023
1023
522
273
144
76
227
941
1023
1016
515
270
142
75
241
949
1023
1002
508
266
140
74
257
957
1023
991
502
263
139
74
275
966
1023
977
496
260
137
73
291
974
1023
963
489
257
135
72
307
982
1023
950
483
253
134
71
322
990
1023
935
476
249
132
70
336
997
1023
920
469
246
130
69
349
1003
1023
905
461
242
128
68
362
1009
1023
891
455
239
126
67
380
1018
1023
881
450
236
125
66
401
1023
1023
876
448
235
124
66
418
1023
1023
866
443
232
123
65
433
1023
1023
857
439
230
122
65
456
1023
1023
855
438
230
121
65
473
1023
1023
844
432
227
120
64
491
1023
1023
840
431
226
119
64
519
1023
1023
844
433
227
120
64
543
1023
1023
842
432
227
120
64
561
1023
1023
835
428
225
119
63
576
1023
1023
825
423
223
118
63
589
1023
1023
812
417
219
116
62
602
1023
1023
803
413
217
115
61
621
1023
1023
798
410
216
114
61
640
1023
1023
795
409
217
115
61
689
1023
1023
803
413
217
115
61
689
1023
1023
797
410
216
114
61
697
1023
1023
781
402
212
112
60
695
1023
1023
755
390
205
109
58
701
1023
1023
743
384
202
107
57
696
1023
1023
721
372
196
104
55
30
17
10
6
4
3
2
2
1
1
1
1
1
1
1
1
1
1
1
1
1
1
1
1
1
1
1
1
1
1
1
1
1
1
1
1
1
1
1
1
1
1
1
1
1
1
1
0
0
1
1
1
1
1
1
0
1
1
0
1
0
1
1
0
1
1
1
1
1
1
1
1
1
0
1
17
135
253
298
293
291
333
448
605
753
852
878
859
848
881
980
1023
1023
1023
1023
1023
1023
1023
1023
1023
1023
1023
1023
1023
1023
1023
1023
1023
1023
1023
1023
1023
1023
1023
1023
1023
1023
1023
1023
1023
1023
1023
1023
1023
1023
1023
1023
1023
1023
1023
1023
1023
1023
1023
1023
1023
1023
1023
1023
1023
1023
1023
1023
1023
1023
1023
1023
1023
1023
1023
1023
1023
1023
1023
1023
1023
1023
1023
1023
1023
1023
1023
1023
1023
1023
1023
1023
1023
1023
1023
1023
1023
1023
1023
1023
1023
1023
1023
1023
1023
1023
1023
1023
1023
1023
1023
1023
1023
1023
1023
1023
1023
1023
1023
1023
1023
1023
1023
1023
1023
1023
1023
1023
1023
1023
1023
1023
1023
1023
1023
1023
1023
1023
1023
1023
1023
1023
1023
1023
1023
1023
1023
1023
1023
1023
1023
1023
1023
1023
1023
1023
1023
1023
1023
1023
1023
1023
1023
1023
1023
1023
1023
1023
1023
1023
1023
1023
1023
1023
1023
1023
1023
1023
1023
1023
1023
1023
1023
1023
1023
1023
1023
1023
1023
1023
1023
1023
1023
1023
1023
1023
1023
1023
1023
1023
1023
1023
1023
1023
1023
1023
1023
1023
1023
1023
1023
1023
1023
1023
1023
1023
1023
1023
1023
1023
1023
1023
1023
1023
1023
1023
1023
1023
1023
1023
1023
1023
1023
1023
1023
1023
1023
1023
1023
1023
1023
1023
1023
1023
1023
1023
1023
1023
1023
1023
1023
1023
1023
1023
1023
1023
1023
1023
1023
1023
1023
1023
1023
1023
1023
1023
1023
1023
1023
1023
1023
1023
1023
1023
1023
1023
1023
1023
1023
1023
1023
1023
1023
1023
1023
1023
1023
1023
1023
1023
1023
1023
1023
1023
999
1023
1023
1023
1023
1023
1023
980
931
970
1023
1023
1023
1023
999
864
791
805
907
1023
1023
1023
786
494
372
501
785
1023
1023
1023
828
550
426
532
783
1023
1023
1023
777
517
415
532
778
1023
1023
1023
836
649
586
687
879
1023
1023
1023
888
723
658
725
867
1009
1023
982
846
719
674
737
857
974
1018
975
890
817
809
880
989
1023
1023
1023
1023
978
987
1023
1023
1023
1023
1023
1023
1023
1023
1023
1023
1023
1023
1023
1023
1023
1023
1023
1023
1023
1023
1023
1023
1023
1023
1023
1023
1023
1023
1023
1023
1023
1023
1023
1023
1023
1023
1023
1023
1023
1023
1023
1023
1023
1023
1023
1023
1023
1023
1023
1023
1023
1023
1023
1023
1023
1023
1023
1023
1023
1023
1023
1023
1023
1023
1023
1023
1023
1005
1023
1023
1023
1023
1023
1023
929
876
902
975
1023
1023
1008
903
796
737
742
796
855
866
808
710
613
554
540
560
596
612
597
559
514
480
465
469
485
499
501
489
465
435
408
394
398
417
440
457
463
443
393
330
277
267
306
372
423
412
338
238
158
147
209
308
386
380
290
170
89
85
177
316
424
422
315
172
88
70
176
341
473
485
392
264
188
248
426
647
817
848
754
599
472
486
631
828
973
969
831
648
528
574
761
1000
1023
1023
1000
786
651
674
850
1023
1023
1023
1002
720
527
552
759
1023
1023
1023
920
620
414
438
657
944
1023
1023
804
482
268
299
529
829
1023
958
687
373
195
193
423
733
929
862
594
312
163
145
361
663
852
783
522
271
141
120
323
609
785
718
473
244
127
111
304
573
735
668
437
225
117
107
294
546
694
626
407
209
108
104
284
524
664
596
384
197
102
99
276
508
641
572
365
187
96
100
280
509
637
565
359
183
95
104
285
514
637
563
360
184
95
112
297
524
641
563
359
184
95
120
311
540
657
573
361
185
96
121
318
556
676
585
359
184
95
108
318
586
721
605
337
173
90
48
268
755
1023
714
363
294
498
263
859
1023
1023
1023
672
952
977
493
259
138
74
40
22
13
8
5
3
2
2
2
1
1
1
1
1
1
1
1
1
1
1
1
1
1
1
1
1
1
1
1
1
1
1
1
1
1
1
1
1
1
1
1
1
1
1
1
1
1
1
1
1
177
164
97
90
191
322
386
470
949
1023
929
888
937
1004
1023
1023
1023
1023
1023
1023
1023
1023
1023
1023
1023
1023
1023
1023
1023
1023
1023
1023
1023
1023
1023
1023
1023
1023
1023
1023
1023
1023
1023
1023
1023
1023
1023
1023
1023
1023
1023
1023
1023
1023
1023
1023
1023
1023
1023
1023
1023
1023
1023
1023
1023
1023
1023
1023
1023
1023
1023
1023
1023
1023
1023
1023
1023
1023
1023
1023
1023
1023
1023
1023
1023
1023
1023
1023
1023
1023
1023
1023
1023
1023
1023
1023
1023
1023
1023
940
931
951
942
941
1023
1023
938
823
774
749
770
819
1023
1023
763
597
484
443
493
565
1023
824
506
370
313
328
371
484
1001
783
420
226
157
132
127
223
814
594
305
158
83
45
25
114
676
434
221
114
60
32
17
125
668
394
201
104
54
29
16
91
572
322
164
84
44
23
13
87
547
302
154
79
41
22
12
89
521
279
142
73
38
20
11
95
522
279
142
73
38
20
11
89
485
260
132
68
35
19
10
113
514
268
136
70
36
19
11
143
553
285
145
75
39
20
11
135
493
247
126
65
34
18
10
134
472
236
120
62
32
17
9
132
422
209
106
54
28
15
8
129
404
200
102
52
27
14
8
115
335
166
84
43
22
12
7
145
364
181
92
47
24
13
7
161
376
186
95
48
25
13
7
165
354
175
89
46
24
13
7
185
374
186
94
48
25
13
7
220
416
207
105
54
28
15
8
296
559
280
143
74
38
20
11
289
470
234
120
62
32
17
9
208
336
167
85
44
23
12
7
214
330
164
83
43
22
12
7
238
348
174
88
45
24
12
7
249
347
173
88
45
23
13
7
272
359
179
91
47
24
13
7
294
371
185
94
49
25
13
8
321
391
195
99
51
27
14
8
343
403
201
103
53
28
15
8
372
424
212
109
56
29
16
9
401
444
222
114
59
31
16
9
432
466
233
120
62
32
17
10
459
480
240
124
64
33
18
10
487
497
250
128
66
35
18
10
510
504
254
130
67
35
19
10
531
510
257
132
68
36
19
11
552
516
260
134
69
36
19
11
571
520
262
135
70
36
19
11
597
533
268
138
72
38
20
11
616
536
270
140
72
38
20
11
643
556
280
145
75
39
21
12
661
561
283
146
76
40
21
12
681
573
289
149
78
41
22
13
698
577
291
151
78
41
22
16
717
588
297
154
80
42
22
20
728
586
296
153
80
42
22
26
744
594
300
155
81
43
23
32
757
594
300
156
81
43
23
41
772
600
303
157
82
43
23
49
782
597
302
157
81
43
23
57
787
588
298
154
80
42
23
70
801
593
300
156
81
43
23
83
815
599
304
158
82
43
23
98
827
602
305
158
83
43
23
115
841
608
308
160
83
44
24
132
849
605
307
159
83
44
23
151
859
606
308
160
83
44
23
170
870
608
309
160
84
44
24
188
878
609
309
160
84
44
24
208
885
607
308
160
84
44
24
228
891
604
307
160
83
44
23
251
898
604
307
160
83
44
23
274
907
606
308
160
84
44
24
298
916
608
310
161
84
45
24
320
924
608
310
161
84
44
24
340
930
607
309
161
84
44
24
361
937
608
310
161
84
45
24
380
940
604
308
160
84
44
24
399
944
601
307
160
83
44
24
418
948
599
306
159
83
44
24
438
953
598
305
159
83
44
24
458
959
598
305
159
83
44
24
476
963
595
304
159
83
44
24
493
965
592
303
158
83
44
24
510
968
590
302
158
82
44
23
528
972
590
302
157
82
44
24
545
975
588
301
157
82
44
23
560
974
583
298
156
82
43
23
579
980
585
299
156
82
44
23
595
980
581
297
155
81
43
23
610
980
576
295
154
81
43
23
626
981
574
295
154
81
43
23
642
985
574
295
154
80
43
23
658
986
572
294
153
80
43
23
674
991
574
295
154
81
43
23
690
993
572
294
154
80
43
23
706
995
572
294
154
80
43
25
720
996
570
293
153
80
43
27
734
998
569
293
153
80
43
30
748
998
567
291
152
80
42
34
759
995
562
289
151
79
42
39
773
995
560
288
151
79
42
46
786
995
558
287
151
79
42
52
798
990
553
285
149
78
42
60
810
988
549
283
148
78
41
71
824
991
550
284
149
78
41
81
836
989
547
282
148
78
41
93
848
986
543
280
147
77
41
105
860
985
541
279
146
77
41
121
873
983
538
278
146
77
41
135
884
981
535
276
145
76
40
149
894
975
530
274
143
75
40
165
905
972
527
272
143
75
40
183
917
968
523
270
142
74
39
198
925
960
516
267
140
74
39
220
938
960
515
267
140
74
39
238
947
956
512
265
139
73
39
258
956
953
509
264
138
73
39
279
967
947
504
261
137
72
38
299
977
944
501
260
136
72
38
315
985
932
493
256
134
71
38
334
995
929
491
254
134
70
37
356
1005
927
489
253
133
70
37
374
1014
923
486
252
132
70
37
389
1021
912
478
248
130
69
37
409
1023
910
477
247
130
68
36
425
1023
899
470
244
128
68
36
443
1023
896
468
243
128
67
36
458
1023
886
461
240
126
66
35
475
1023
879
457
237
125
66
35
490
1023
870
451
234
123
65
35
504
1023
862
447
232
122
64
34
521
1023
855
442
230
121
64
34
536
1023
848
438
228
120
63
34
551
1023
843
435
226
119
63
33
564
1023
832
429
223
117
62
33
580
1023
827
426
222
116
61
33
595
1023
820
422
220
116
61
32
610
1023
816
420
218
115
61
32
626
1023
812
418
217
114
60
32
641
1023
806
414
215
113
60
32
655
1023
799
410
213
112
59
32
670
1023
794
407
212
112
59
32
683
1023
786
403
210
111
58
31
698
1023
782
401
209
110
58
32
711
1023
775
397
207
109
58
32
721
1023
763
391
204
107
57
34
732
1023
754
386
201
106
56
36
746
1023
750
384
200
105
56
40
759
1023
745
382
199
105
55
43
770
1023
735
376
196
103
55
48
781
1023
729
373
195
103
54
54
793
1023
720
369
193
102
54
60
804
1023
713
366
191
100
53
67
815
1023
704
361
188
99
52
75
826
1023
698
358
187
98
52
84
837
1023
688
353
185
97
51
94
848
1023
683
350
183
96
51
107
861
1023
677
348
182
96
51
118
871
1023
669
344
180
95
50
131
881
1023
662
341
178
94
50
145
892
1023
657
338
176
93
49
158
902
1023
650
335
175
92
49
171
910
1023
640
330
172
91
48
187
920
1023
635
327
171
90
48
204
931
1023
627
323
169
89
47
221
940
1023
621
320
167
88
47
238
948
1023
612
316
165
87
46
256
957
1023
606
313
164
86
46
278
968
1023
602
311
163
86
46
297
978
1023
597
308
161
85
45
315
987
1023
588
304
159
84
45
333
996
1023
580
300
157
83
44
349
1004
1016
572
296
155
82
43
364
1011
1007
562
291
153
81
43
382
1020
1001
557
289
151
80
42
403
1023
999
554
287
151
79
42
416
1023
988
545
283
148
78
42
430
1023
979
538
279
146
77
41
446
1023
973
533
276
145
77
41
465
1023
971
530
275
145
76
41
477
1023
957
520
270
142
75
40
494
1023
954
517
269
141
74
39
507
1023
944
509
265
139
73
39
523
1023
941
506
263
138
73
39
537
1023
928
497
259
136
71
38
554
1023
926
495
258
135
71
38
567
1023
913
486
253
133
70
37
584
1023
912
485
253
133
70
37
597
1023
898
476
248
130
69
37
612
1023
893
472
246
129
68
36
625
1023
886
467
243
128
68
36
639
1023
880
464
241
127
67
36
652
1023
869
457
238
125
66
35
664
1023
864
453
236
124
65
35
677
1023
853
446
233
122
65
35
688
1023
845
441
230
121
64
34
701
1023
833
434
226
119
63
35
714
1023
826
430
224
118
62
36
725
1023
815
423
221
116
61
38
737
1023
806
418
218
115
61
40
748
1023
796
412
215
113
60
44
761
1023
791
409
214
112
59
48
774
1023
785
406
212
111
59
53
785
1023
777
401
209
110
58
60
798
1023
771
398
208
109
58
66
809
1023
761
393
205
108
57
73
819
1023
750
387
202
106
56
81
830
1023
742
382
200
105
56
89
840
1023
735
378
198
104
55
98
849
1023
726
373
195
103
54
109
860
1023
719
370
193
102
54
122
871
1023
714
367
192
101
54
134
881
1023
705
362
190
100
53
147
892
1023
697
358
187
99
52
161
901
1023
689
354
185
97
52
176
911
1023
682
350
184
96
51
195
923
1023
679
349
182
96
51
210
932
1023
668
343
180
95
50
229
943
1023
662
340
178
94
50
250
953
1023
658
338
177
93
50
265
960
1023
646
332
174
92
49
283
970
1023
640
330
173
91
48
299
977
1023
630
324
170
89
47
316
986
1023
622
320
168
88
47
336
996
1023
615
317
166
87
46
351
1003
1023
608
313
164
87
46
367
1011
1023
600
309
162
86
45
385
1021
1023
594
307
161
85
45
403
1023
1023
589
304
160
84
45
420
1023
1017
581
300
158
83
44
438
1023
1014
577
298
157
82
44
452
1023
1002
566
293
154
81
43
467
1023
994
559
289
152
80
43
486
1023
992
557
288
151
80
42
502
1023
989
553
286
151
79
42
517
1023
983
547
284
149
78
42
532
1023
977
543
281
148
78
42
547
1023
966
533
277
145
77
41
560
1023
959
528
274
144
76
40
574
1023
951
521
271
142
75
40
587
1023
944
515
268
141
74
39
601
1023
936
509
265
139
73
39
615
1023
928
503
262
138
72
39
628
1023
922
498
259
136
72
38
643
1023
913
492
256
135
71
38
655
1023
907
487
253
133
70
38
669
1023
902
483
251
132
70
37
681
1023
891
476
248
130
69
37
694
1023
884
471
245
129
68
37
706
1023
876
465
242
128
67
38
720
1023
873
463
241
127
67
39
731
1023
860
455
237
125
66
42
745
1023
858
454
236
124
66
44
756
1023
847
446
233
123
65
47
767
1023
838
441
230
121
64
51
777
1023
828
434
226
119
63
57
790
1023
825
432
226
119
63
61
799
1023
811
424
221
116
62
68
812
1023
810
423
221
116
62
75
821
1023
797
416
217
114
60
83
832
1023
793
413
215
113
60
93
843
1023
782
407
212
112
59
102
854
1023
775
403
210
111
58
111
863
1023
762
395
206
109
57
123
873
1023
758
393
205
108
57
135
883
1023
746
386
202
106
56
145
891
1023
732
378
198
104
55
161
903
1023
728
376
197
104
55
176
913
1023
720
372
194
103
54
189
921
1023
712
367
192
101
54
207
932
1023
706
364
190
100
53
220
939
1023
694
358
187
99
52
237
948
1023
686
353
185
97
52
257
958
1023
679
350
183
97
51
275
967
1023
671
346
181
95
51
293
976
1023
663
342
179
94
50
314
986
1023
660
340
178
94
50
330
994
1023
650
335
176
93
49
347
1003
1023
641
331
173
91
48
365
1012
1023
635
328
172
91
48
382
1021
1023
628
325
170
90
48
397
1023
1023
619
320
168
88
47
416
1023
1023
615
318
167
88
47
430
1023
1023
604
313
164
86
46
445
1023
1023
598
309
162
85
45
459
1023
1023
589
305
160
84
45
478
1023
1023
589
305
160
84
45
492
1023
1021
582
301
158
83
44
509
1023
1018
578
299
157
83
44
522
1023
1008
568
295
155
81
43
536
1023
1001
562
292
153
81
43
551
1023
995
557
289
152
80
42
566
1023
988
550
286
150
79
42
578
1023
978
541
281
148
78
41
593
1023
972
536
279
146
77
41
604
1023
958
526
273
144
76
40
620
1023
955
522
272
143
75
40
633
1023
946
515
268
141
74
40
646
1023
938
509
265
139
74
39
658
1023
930
503
262
138
73
39
671
1023
923
497
259
136
72
38
683
1023
915
492
256
135
71
38
695
1023
903
484
252
132
70
38
706
1023
895
478
249
131
69
39
719
1023
888
473
247
130
69
40
729
1023
877
466
243
128
68
42
741
1023
868
460
240
126
67
45
753
1023
861
455
237
125
66
48
764
1023
853
449
235
123
65
51
774
1023
842
443
231
122
64
57
788
1023
836
439
229
120
64
64
801
1023
830
435
227
119
63
69
809
1023
815
426
222
117
62
76
820
1023
808
422
220
116
61
82
829
1023
797
415
217
114
60
91
839
1023
787
409
214
112
60
100
849
1023
780
405
212
111
59
110
859
1023
774
402
210
110
58
120
869
1023
762
395
207
109
58
130
878
1023
753
390
204
107
57
141
886
1023
741
383
200
106
56
156
898
1023
738
382
200
105
56
168
906
1023
725
374
196
103
55
184
917
1023
722
372
195
103
54
199
926
1023
711
366
192
101
53
217
936
1023
705
363
190
100
53
233
944
1023
693
357
187
98
52
251
954
1023
688
354
186
98
52
271
964
1023
683
351
184
97
51
287
972
1023
675
348
182
96
51
304
980
1023
665
343
179
95
50
320
988
1023
660
340
178
94
50
338
997
1023
649
334
175
92
49
353
1004
1023
641
330
173
91
48
368
1012
1023
631
325
171
90
48
385
1020
1023
624
322
169
89
47
399
1023
1023
616
318
167
88
47
417
1023
1023
610
315
165
87
46
432
1023
1023
601
310
163
86
46
447
1023
1023
594
307
161
85
45
462
1023
1022
587
303
159
84
45
477
1023
1014
579
300
157
83
44
493
1023
1006
571
295
155
82
43
508
1023
1002
567
293
154
81
43
522
1023
994
559
290
152
80
43
536
1023
986
553
286
151
79
42
549
1023
978
546
283
149
78
42
564
1023
973
541
280
147
78
41
579
1023
966
535
278
146
77
41
592
1023
958
528
274
144
76
40
604
1023
947
520
270
142
75
40
617
1023
939
513
267
140
74
39
629
1023
930
506
263
138
73
39
642
1023
924
502
261
137
72
39
656
1023
916
496
258
136
72
38
668
1023
908
490
255
134
71
38
683
1023
901
485
252
133
70
37
695
1023
892
478
249
131
69
37
705
1023
877
468
243
128
68
38
718
1023
871
464
241
127
67
39
730
1023
865
460
239
126
66
41
742
1023
856
454
237
125
66
43
751
1023
846
448
233
123
65
47
763
1023
841
444
231
122
64
51
776
1023
836
441
229
121
64
55
786
1023
828
436
227
120
63
61
798
1023
821
431
225
118
62
67
808
1023
812
426
222
117
62
72
817
1023
803
420
219
115
61
81
829
1023
798
417
218
115
61
90
840
1023
790
413
215
113
60
99
851
1023
783
408
213
112
59
110
861
1023
775
404
210
111
59
121
871
1023
768
400
209
110
58
135
883
1023
764
397
207
109
58
146
892
1023
754
392
205
108
57
159
901
1023
745
387
202
106
56
173
911
1023
739
383
200
105
56
188
921
1023
731
379
198
104
55
199
928
1023
720
372
195
103
54
218
938
1023
714
369
193
102
54
233
946
1023
703
363
190
100
53
252
956
1023
696
360
188
99
52
269
964
1023
688
355
186
98
52
288
974
1023
684
353
185
97
52
302
981
1023
670
346
181
95
50
321
990
1023
666
344
180
95
50
338
999
1023
657
339
177
94
49
357
1008
1023
652
336
176
93
49
376
1017
1023
644
333
174
92
49
392
1023
1023
638
329
173
91
48
406
1023
1023
628
325
170
90
48
422
1023
1023
624
322
169
89
47
435
1023
1023
612
317
166
87
46
452
1023
1023
608
315
165
87
46
464
1023
1023
595
308
161
85
45
479
1023
1023
591
306
160
84
45
496
1023
1021
583
302
159
83
44
509
1023
1014
576
299
157
83
44
522
1023
1003
566
294
154
81
43
536
1023
1000
563
292
153
81
43
550
1023
990
554
288
151
80
42
567
1023
985
549
285
150
79
42
581
1023
976
541
281
148
78
41
593
1023
963
531
276
145
76
41
606
1023
958
527
274
144
76
40
619
1023
949
520
271
142
75
40
629
1023
937
510
266
140
74
39
642
1023
930
505
263
138
73
39
656
1023
925
501
261
137
72
39
667
1023
914
493
257
135
71
38
680
1023
911
490
256
134
71
38
693
1023
904
485
253
133
70
38
705
1023
897
480
250
132
69
39
718
1023
892
477
248
131
69
41
730
1023
886
472
246
130
68
43
742
1023
880
468
244
128
68
45
753
1023
869
461
240
126
67
47
760
1023
852
450
235
124
65
49
770
1023
854
1023
1023
1023
1023
1023
1023
1023
1023
1023
1023
1023
1023
1023
1023
1023
981
740
1023
1023
1020
571
1023
1023
847
438
269
147
78
114
859
1023
947
496
260
137
73
39
21
12
7
5
3
2
2
2
1
1
1
1
1
1
1
1
1
1
1
1
1
1
1
1
1
1
1
1
1
1
1
1
1
1
1
1
1
1
1
1
1
1
1
1
1
1
1
1
1
1
14
136
301
415
458
464
480
563
719
911
1023
1023
1023
1023
1023
1023
1023
1023
1023
1023
1023
1023
1023
1023
1023
1023
1023
1023
1023
1023
1023
1023
1023
1023
1023
1023
1023
1023
1023
1023
1023
1023
1023
1023
1023
1023
1023
1023
1023
1023
1023
1023
1023
1023
1023
1023
1023
1023
1023
1023
1023
1023
1023
1023
1023
1023
1023
1023
1023
1023
1023
1023
1023
1023
1023
1023
1023
1023
1023
1023
1023
1023
1023
1023
1023
1023
1023
1023
1023
1023
1023
1023
1023
1023
1023
800
1023
1023
1023
1023
1023
1023
1023
1023
1023
1023
1023
1023
1023
1023
1023
1023
1023
1023
1023
1023
1023
1023
1023
1023
1023
1023
1023
1023
1023
1023
1023
1023
1023
1023
1023
1023
1023
1023
1023
1023
1023
1023
1023
1023
1023
1023
1023
1023
1023
1023
1023
1023
1023
1023
945
1023
1023
1023
1023
1023
1023
1023
840
925
1023
1023
1023
1023
1023
1023
765
819
1023
1023
1023
1023
1023
1023
720
789
1023
1023
1023
1023
1023
1023
756
992
1023
1023
1023
1023
1023
1023
1023
1023
1023
1023
1023
1023
1023
1023
1023
1023
1023
1023
1023
1023
1023
1023
1023
1023
1023
1023
1023
1023
1023
1023
1023
1023
1023
1023
1023
1023
1023
1023
1023
1023
1023
1023
1023
1023
1023
1023
1023
1023
1023
1023
1023
1023
1023
1023
775
1023
1023
1023
1023
1023
1023
1023
639
847
1023
1023
1023
1023
1023
957
497
574
1023
1023
1023
1023
1023
818
442
359
998
1023
1023
1023
1023
721
410
232
842
1023
1023
1023
924
686
430
228
678
1023
1023
1023
773
599
375
199
514
1023
1023
1023
668
486
283
150
397
1023
1023
1023
601
384
206
110
307
983
1023
1023
552
315
167
89
264
959
1023
1023
523
274
145
78
256
955
1023
1004
510
268
142
76
260
957
1023
980
499
262
139
74
258
956
1023
942
481
252
134
71
248
950
1023
904
462
242
129
68
243
947
1023
870
446
235
124
66
240
946
1023
841
432
229
122
65
239
945
1023
815
419
226
120
64
236
943
1023
784
404
238
126
67
225
936
1023
747
385
251
132
70
215
930
1023
713
368
242
128
68
214
929
1023
691
357
229
121
64
212
928
1023
666
344
269
141
74
196
917
1023
617
320
378
196
103
164
889
1023
544
282
470
256
134
130
846
917
459
239
488
272
140
100
795
761
384
199
392
206
106
86
794
750
378
196
345
175
91
94
816
783
395
205
246
124
65
117
853
862
433
225
152
79
