303
326
356
397
424
418
378
388
434
493
562
575
534
475
442
448
404
353
353
366
404
447
485
522
532
524
489
477
465
434
395
437
510
524
511
483
461
467
468
448
430
429
431
438
451
512
536
564
591
587
590
607
611
584
532
512
514
509
475
464
469
481
469
472
477
483
504
523
515
490
507
550
588
623
648
689
703
720
755
742
676
609
554
520
512
535
542
570
577
528
451
387
334
324
317
324
354
355
337
347
334
306
278
294
335
398
452
495
489
450
416
415
426
458
479
449
387
396
457
541
603
592
551
525
489
453
464
544
557
521
490
522
548
548
550
545
564
590
633
700
727
763
762
731
676
596
568
595
642
624
590
606
646
674
683
669
639
622
633
647
652
659
644
645
677
706
730
694
657
630
614
665
694
682
643
599
584
572
603
646
662
656
635
614
590
610
667
696
656
625
657
696
703
739
734
713
694
704
726
741
762
816
853
852
823
806
812
828
840
863
858
856
865
845
811
759
696
681
682
686
699
697
685
745
757
700
647
614
630
667
693
703
698
660
618
538
551
618
652
620
579
582
566
510
468
440
430
442
457
487
538
565
572
576
557
536
492
463
500
523
508
536
633
700
767
812
838
885
938
969
1008
1023
1015
901
747
611
509
442
377
366
381
395
433
443
418
451
539
613
636
641
598
584
575
587
594
618
651
674
729
776
769
700
648
612
617
631
648
651
646
647
650
639
613
655
669
680
689
703
680
627
599
654
674
613
528
486
426
367
339
365
456
522
540
547
545
539
566
574
565
560
552
551
553
576
601
632
674
700
693
679
688
699
699
709
738
740
730
702
640
651
712
763
750
686
648
665
702
708
685
692
675
634
583
581
603
590
548
588
646
682
714
700
655
637
668
692
706
749
771
746
689
636
597
580
624
682
652
667
703
698
676
673
700
713
723
767
746
682
648
630
607
634
680
698
702
701
690
675
652
656
664
689
687
673
682
616
583
656
710
697
642
587
586
571
555
595
655
704
682
649
662
651
651
622
584
537
493
494
540
627
656
663
692
647
584
578
621
606
584
638
668
648
598
556
554
602
644
632
589
575
590
570
506
464
527
580
576
564
578
628
675
712
696
679
680
670
631
582
576
595
593
595
615
630
627
611
565
538
556
594
670
696
682
627
578
558
579
580
580
574
583
580
599
584
552
551
582
588
600
596
562
554
569
569
579
612
663
668
612
592
618
634
666
677
632
536
456
480
529
563
514
426
411
435
466
515
600
673
707
760
819
851
874
890
835
782
741
646
540
444
360
273
210
229
307
398
458
530
577
580
605
600
593
611
608
562
462
425
453
480
530
596
601
543
488
461
519
564
598
623
652
644
559
557
603
641
681
674
641
611
565
556
589
624
573
540
567
585
622
643
650
671
657
643
571
537
619
669
674
712
723
706
697
651
646
666
695
718
726
742
735
752
768
753
738
768
778
780
786
793
795
785
812
862
865
833
820
861
896
903
855
843
807
777
789
787
748
694
638
621
580
560
583
598
605
667
677
663
619
616
641
671
655
617
589
612
604
618
653
622
528
521
543
531
589
687
733
681
612
610
632
603
587
597
583
511
551
666
691
624
555
567
577
557
501
420
461
542
580
605
539
486
452
463
574
645
683
653
600
590
614
624
587
550
552
565
556
569
572
579
577
555
559
611
613
564
531
562
596
573
567
580
547
506
476
470
497
502
471
436
442
512
642
675
571
462
458
519
564
595
648
615
554
516
513
534
533
513
468
410
409
468
563
599
587
586
568
521
469
483
561
598
588
598
594
560
552
531
544
558
572
560
540
497
477
494
528
550
560
542
499
449
435
494
527
530
523
495
452
488
551
541
521
526
546
574
613
607
558
536
536
505
480
468
522
566
563
574
619
640
616
604
635
660
698
748
835
876
839
764
708
603
439
316
239
222
314
413
440
426
435
446
456
439
447
485
512
479
442
482
543
545
531
528
543
541
527
561
609
593
569
599
625
608
543
488
481
528
561
583
593
594
597
549
506
540
575
607
605
574
541
559
614
672
694
638
591
583
561
546
566
574
576
554
548
552
577
593
576
569
608
664
697
711
708
638
600
610
644
665
685
685
711
721
746
693
615
629
659
692
725
760
772
722
696
699
698
632
552
538
601
621
595
573
551
532
526
476
439
435
440
425
441
494
498
458
486
529
586
571
485
455
490
513
521
476
454
435
470
515
496
489
459
459
466
469
478
509
552
568
557
526
500
481
477
508
518
469
456
505
569
575
596
607
611
550
498
533
586
583
540
498
492
535
567
591
536
467
502
579
593
589
586
597
612
582
535
555
583
549
501
492
507
519
523
562
605
620
626
586
539
522
537
576
577
540
527
489
492
580
638
606
541
520
527
536
499
541
579
578
600
624
639
637
617
577
540
499
528
536
518
492
513
553
578
601
600
582
592
601
604
615
649
667
586
529
490
537
606
603
559
526
518
506
527
531
478
444
494
569
609
606
588
575
565
583
576
551
529
563
629
624
575
551
540
541
543
492
453
438
483
534
545
568
632
752
816
814
799
819
856
901
917
881
862
830
733
620
496
402
334
293
274
323
395
415
423
454
481
520
546
542
566
564
535
537
554
593
603
549
512
573
655
662
611
530
483
490
547
588
641
654
615
591
590
574
570
592
625
619
538
482
518
579
640
642
645
660
622
572
575
613
650
645
615
597
585
559
565
582
582
581
581
614
685
732
701
642
640
650
653
626
642
683
730
757
748
708
677
606
612
658
694
708
701
660
616
609
609
603
596
593
572
537
516
511
495
510
561
617
649
600
509
436
405
404
409
408
406
409
416
442
451
441
459
429
378
350
388
446
485
486
458
455
476
501
496
428
417
463
493
483
450
454
472
479
465
463
482
492
487
485
509
530
545
534
504
462
451
498
499
475
506
545
587
585
539
487
451
489
536
538
527
482
476
518
555
540
484
486
535
557
539
475
477
519
567
546
511
525
550
542
534
524
480
473
510
544
531
523
521
523
529
539
535
516
485
467
518
555
535
543
559
525
465
479
516
508
526
536
508
504
485
500
519
535
558
549
502
492
510
504
476
527
557
547
521
509
556
611
643
645
601
586
611
609
551
497
486
495
505
458
418
448
490
551
601
626
589
547
516
492
513
541
547
579
628
616
604
608
566
484
428
451
526
562
506
444
439
415
407
430
502
559
573
524
477
408
424
533
620
623
588
559
476
437
452
497
531
484
478
503
515
532
511
484
459
471
554
589
621
664
646
670
782
861
868
825
795
804
782
704
582
445
350
272
278
275
262
264
268
273
287
328
429
490
520
525
514
497
450
466
476
532
544
502
471
483
482
476
491
515
516
512
511
522
511
508
512
487
463
458
468
474
477
481
507
532
560
517
478
518
589
638
649
572
489
449
447
495
576
609
587
512
471
478
461
493
552
578
598
611
563
513
538
581
559
533
525
548
495
505
585
653
652
576
496
456
438
479
505
436
403
426
457
463
363
267
206
169
157
182
212
213
156
161
176
199
180
128
80
64
94
98
95
87
88
88
113
167
245
282
277
288
317
327
260
189
203
234
288
350
399
416
442
432
401
382
397
415
436
462
452
452
444
455
450
458
467
417
378
380
382
390
415
424
453
493
491
438
452
550
626
624
595
559
483
402
397
449
437
372
329
297
291
276
264
251
225
216
253
272
241
216
224
283
329
361
373
378
376
362
342
377
433
443
425
376
344
323
350
392
463
516
519
478
452
427
393
387
430
539
634
619
597
578
546
562
611
634
648
669
651
617
572
557
569
609
601
591
601
616
611
570
529
549
618
682
738
761
779
796
784
782
766
721
678
630
612
600
572
579
639
674
677
606
499
420
458
536
602
595
566
543
533
524
502
468
449
501
567
591
570
561
613
674
644
571
577
680
708
639
582
562
580
590
604
638
675
728
739
741
717
656
636
641
646
665
699
695
672
718
778
823
800
692
608
585
634
722
776
824
891
941
936
1000
1023
1023
1023
1023
1016
878
768
673
598
553
516
481
479
469
433
457
553
624
658
725
755
764
775
764
718
687
733
802
833
852
864
861
808
737
726
759
764
749
742
740
729
702
714
746
781
759
701
672
712
725
724
751
763
769
747
736
728
742
792
828
782
735
715
695
620
545
577
671
732
739
748
771
786
771
751
702
651
632
571
513
567
717
867
946
935
800
640
554
578
627
656
708
717
697
680
671
695
754
792
810
790
763
696
666
669
651
616
580
529
459
457
484
495
500
515
557
621
626
561
488
440
419
474
510
514
500
496
499
457
432
401
356
355
400
434
465
485
508
513
532
584
617
644
665
629
579
561
557
596
703
742
706
676
641
580
542
542
555
578
604
570
528
509
510
555
559
517
438
372
378
428
474
468
444
452
478
536
574
532
470
434
451
458
444
451
518
566
518
381
274
303
394
425
417
414
443
432
428
396
376
385
375
392
462
502
499
456
422
400
395
423
390
352
384
413
403
411
415
398
409
486
541
548
537
582
642
638
585
507
449
467
469
425
384
398
428
464
510
501
506
510
473
441
481
517
493
491
530
575
597
552
494
487
506
463
382
363
426
462
458
442
415
386
372
391
392
416
464
438
407
405
472
503
486
443
414
425
424
380
341
368
406
425
421
424
387
369
387
422
417
425
357
315
363
446
479
487
466
460
499
482
445
443
455
530
592
630
649
597
543
514
531
516
459
332
195
104
55
41
91
146
223
312
341
326
335
352
366
327
296
314
375
409
396
352
375
450
472
470
449
453
435
390
385
441
464
448
449
458
431
358
276
254
290
343
370
368
403
436
442
419
422
462
504
542
540
511
541
555
537
531
529
510
469
459
452
465
490
500
486
449
451
468
494
513
554
592
601
572
553
599
654
652
620
585
590
614
644
641
602
592
586
586
596
568
539
583
601
604
586
558
522
510
475
467
496
470
382
331
348
353
364
398
431
411
364
338
355
409
410
400
394
400
380
374
414
460
474
462
470
467
434
470
483
438
376
367
401
428
407
393
365
310
362
483
493
456
478
514
508
493
485
475
510
540
514
533
538
512
551
558
547
563
535
514
490
459
468
520
597
651
672
654
578
524
520
585
585
578
603
613
559
468
468
468
469
500
550
578
530
478
468
446
428
426
470
492
477
437
403
416
492
559
540
507
482
481
470
478
502
467
442
459
514
522
484
454
472
554
595
562
512
516
554
582
543
463
411
391
431
477
450
421
427
453
495
511
505
507
536
554
556
502
509
535
551
579
569
519
494
501
493
516
531
511
488
473
452
459
497
530
525
467
444
443
438
456
482
525
530
527
531
512
507
543
535
527
474
473
517
504
450
435
427
457
485
486
491
504
519
505
464
444
449
497
575
585
550
575
610
618
622
662
726
798
824
799
803
808
822
807
746
627
486
374
310
281
255
305
392
415
433
421
376
395
442
456
484
513
516
467
418
407
449
470
466
457
471
513
547
520
470
424
406
468
549
559
517
480
452
488
528
518
508
557
605
617
582
499
452
497
553
566
516
473
489
543
605
626
602
600
580
533
497
463
464
489
560
565
522
509
527
531
517
532
527
477
442
466
519
590
589
541
534
507
454
506
622
647
625
614
610
603
605
613
573
531
529
544
565
569
515
441
441
494
509
476
407
396
439
474
480
524
529
528
507
481
489
470
419
414
419
418
442
424
424
406
401
365
367
441
480
466
479
517
508
504
537
528
486
486
532
538
505
496
487
515
500
472
468
444
418
391
382
371
351
384
404
412
440
416
367
405
464
514
521
538
560
537
497
496
519
523
517
497
482
459
418
421
469
520
551
553
495
478
488
519
532
540
544
518
493
457
453
450
474
516
508
460
414
390
368
371
400
413
434
455
464
465
450
472
510
508
518
519
465
426
453
484
529
571
563
522
552
612
597
496
465
478
463
447
438
419
399
405
429
462
506
526
517
489
439
440
485
538
572
563
577
573
534
519
496
485
502
548
575
519
477
460
509
546
538
539
540
543
498
467
448
467
479
475
494
577
666
680
616
516
448
426
466
549
593
580
568
580
561
554
567
569
576
535
524
570
571
558
517
495
512
529
579
646
689
761
853
921
945
918
893
854
825
786
718
610
461
346
316
316
304
281
271
311
399
471
447
443
468
501
526
559
579
553
507
478
506
557
553
543
541
550
592
628
616
608
562
496
414
389
454
524
555
571
552
550
618
646
580
485
471
519
565
607
628
615
625
613
576
563
591
604
588
528
441
444
492
494
531
621
680
663
612
617
653
662
634
565
549
568
590
645
724
710
649
582
590
628
628
659
727
764
724
677
675
636
571
510
527
598
653
681
680
631
546
514
551
557
546
527
510
429
361
367
377
384
373
367
402
393
381
340
350
384
399
401
384
361
417
480
520
491
435
407
367
315
332
398
442
462
491
505
522
542
516
453
408
377
359
390
430
407
377
419
502
498
431
454
500
507
484
491
499
530
563
561
481
416
406
425
439
461
447
441
437
491
521
522
476
432
441
479
501
513
512
521
527
502
487
498
521
535
522
521
503
503
461
379
346
386
450
512
535
523
517
549
540
515
505
517
537
535
456
414
460
533
534
525
589
630
569
484
464
469
481
483
488
515
546
600
644
637
564
519
527
519
556
598
567
577
579
577
557
520
506
568
606
585
494
395
397
432
475
490
477
466
463
484
541
560
538
488
472
448
426
441
469
503
535
545
543
503
465
436
448
457
463
488
485
446
394
406
471
537
589
631
663
673
736
794
772
739
766
787
790
781
717
624
529
448
344
235
179
175
223
275
339
432
520
513
508
496
476
429
402
446
478
463
470
482
529
582
561
539
510
473
483
525
593
598
577
548
572
622
627
579
553
494
461
495
515
492
463
509
532
516
502
526
536
520
534
565
575
586
584
508
496
546
562
559
596
622
615
620
657
671
619
556
546
593
665
711
688
639
650
690
704
710
707
694
695
671
599
578
631
663
626
626
641
631
590
570
552
510
500
545
591
598
585
565
556
511
437
433
434
388
402
418
399
399
442
460
434
337
270
309
374
422
444
425
390
389
387
377
378
363
332
352
381
408
389
380
423
492
524
506
508
498
462
408
403
451
460
461
460
480
471
504
485
429
373
387
437
475
459
439
444
459
434
388
377
427
468
437
404
439
535
547
533
544
534
516
525
534
536
506
496
496
485
518
560
579
532
489
465
512
547
524
493
518
559
566
574
546
473
470
469
462
473
508
541
509
504
535
516
476
492
491
468
485
512
514
571
627
620
559
538
550
549
556
546
543
529
495
444
398
371
393
459
519
554
571
529
470
423
404
391
400
449
497
518
525
512
505
444
400
401
446
472
488
452
431
427
410
403
377
396
486
546
561
530
481
450
433
443
484
529
542
589
624
668
710
776
823
807
767
697
666
644
619
495
391
379
363
321
277
270
303
312
350
407
440
504
557
551
521
525
566
553
478
475
515
547
551
613
683
665
553
471
476
506
580
589
607
618
607
596
597
568
570
573
580
578
589
599
590
610
604
526
446
462
487
500
513
537
592
662
706
704
699
666
612
558
565
600
606
595
575
587
615
640
660
641
633
630
586
581
646
724
776
761
745
747
742
716
681
649
644
652
688
730
750
731
691
628
572
529
502
554
599
585
572
562
573
518
510
519
506
496
465
411
388
408
470
469
436
441
472
478
471
443
386
368
363
340
366
458
491
495
546
536
491
459
440
436
453
499
535
505
439
400
415
460
499
506
461
429
451
466
433
443
528
570
532
516
533
540
518
529
545
542
537
540
469
395
415
432
463
482
412
333
343
390
428
474
512
470
422
431
456
484
480
528
565
529
475
470
496
513
479
452
458
437
417
440
459
460
424
405
435
454
462
458
467
467
481
483
485
507
507
491
487
492
518
537
541
545
546
520
448
424
423
473
487
440
424
441
451
452
505
536
547
573
541
475
388
353
349
367
399
420
428
414
355
295
287
313
343
373
412
430
356
321
376
480
513
528
511
498
494
496
512
500
479
461
419
418
421
454
473
461
488
577
632
643
642
634
646
625
629
665
679
607
475
346
252
158
98
92
152
212
266
298
333
366
400
418
436
454
457
458
433
436
472
523
560
531
473
438
456
516
565
568
537
524
539
535
524
482
488
545
594
555
466
405
408
442
484
567
616
607
563
539
507
520
521
506
535
582
624
662
653
597
573
550
555
577
560
540
510
474
488
524
536
526
517
524
528
509
503
555
598
640
650
608
611
637
604
583
607
678
680
643
617
619
610
615
665
660
584
528
503
518
538
502
476
495
504
498
493
507
484
430
380
410
450
487
489
474
449
459
496
493
474
458
482
438
438
507
532
443
395
386
418
445
414
387
437
543
614
554
535
554
573
577
525
484
480
477
499
522
514
500
521
510
524
527
506
480
505
568
601
579
570
576
552
528
526
555
573
619
650
671
579
475
427
399
431
466
520
572
546
537
513
503
487
452
488
546
543
544
538
575
598
563
520
509
513
565
596
581
557
543
527
522
483
445
450
485
504
499
490
502
476
463
507
567
548
504
490
497
516
554
599
614
568
518
498
517
555
581
583
552
516
489
472
476
481
484
483
491
510
491
444
448
444
428
432
467
492
528
543
565
564
533
495
475
493
492
444
405
438
507
561
551
573
572
486
450
450
447
470
520
569
599
622
675
751
798
854
899
939
914
844
737
639
550
460
408
343
250
204
246
291
292
288
349
415
447
442
450
488
525
578
600
591
556
517
510
513
486
457
397
395
456
500
522
553
555
510
463
478
541
608
612
573
561
566
585
564
487
442
473
525
548
543
545
545
526
517
472
461
502
552
535
540
565
544
544
586
609
613
606
619
600
571
588
606
635
640
572
556
583
625
626
570
540
582
645
683
653
647
701
711
664
616
628
642
637
658
652
557
515
524
533
519
521
507
507
508
510
524
497
468
447
443
431
419
413
398
382
389
420
477
451
429
391
382
389
420
464
490
484
468
422
373
354
382
395
412
467
486
490
473
472
458
396
360
362
375
428
521
560
530
513
509
506
491
479
483
501
497
470
457
430
439
474
496
490
497
527
526
512
435
397
424
478
522
539
563
581
520
459
454
482
500
539
601
557
479
431
441
485
496
456
431
410
451
507
508
475
482
544
543
495
515
500
457
423
393
412
473
520
542
541
542
548
547
531
513
474
455
451
485
553
593
582
532
523
535
507
458
450
490
561
581
576
542
513
480
492
512
495
441
422
430
462
484
485
477
496
508
507
521
536
544
546
537
516
474
470
514
512
450
436
485
545
557
528
548
559
516
472
463
470
472
514
571
606
656
712
752
759
787
801
828
865
867
783
620
468
279
146
98
157
227
315
402
455
488
469
459
503
527
500
444
417
428
469
500
524
569
586
566
503
453
445
486
497
504
513
562
602
585
567
557
592
558
505
507
527
505
531
559
527
491
509
521
454
431
463
541
590
597
551
501
495
519
494
471
506
564
605
636
607
505
438
478
568
556
494
487
567
587
545
551
584
601
618
602
607
556
535
585
624
654
644
583
541
531
538
522
503
514
499
468
452
470
475
445
417
365
319
332
381
385
378
413
460
448
397
358
369
366
313
274
275
355
421
393
308
234
246
296
306
307
331
323
324
364
401
404
413
381
383
417
397
379
398
443
474
511
531
521
485
451
405
399
454
481
472
493
524
517
497
481
494
478
482
535
567
593
583
546
523
519
575
616
613
582
531
498
467
446
452
462
451
438
461
515
517
450
377
343
380
453
480
489
522
514
497
508
557
630
656
658
638
641
636
586
508
491
496
502
512
518
556
587
571
548
527
497
493
486
487
495
528
631
718
719
702
628
540
501
497
534
587
607
598
637
679
687
605
580
605
593
576
556
576
625
658
640
666
666
651
602
555
603
637
647
698
734
699
590
542
555
603
641
632
596
581
553
525
526
550
575
592
565
506
531
613
621
627
705
758
728
657
599
584
573
557
545
539
563
560
610
651
650
592
528
439
403
459
569
652
705
730
791
885
957
978
951
900
854
809
728
620
501
403
307
252
261
269
248
282
333
399
479
552
512
421
421
448
462
475
476
478
464
473
502
508
525
566
575
532
493
473
470
457
446
456
462
445
442
466
494
519
525
521
501
486
482
462
463
452
431
430
415
398
433
455
467
491
491
447
441
450
424
406
359
313
345
407
446
437
405
368
347
325
352
344
293
269
336
446
496
510
505
492
497
487
478
479
463
463
468
461
446
434
416
403
385
360
397
435
447
428
411
380
368
341
311
306
334
347
304
247
238
249
252
244
273
300
294
299
305
312
312
309
345
383
417
479
469
436
444
478
489
491
483
443
395
376
358
332
338
351
361
376
389
388
360
328
322
330
332
377
442
462
447
431
443
489
483
475
437
407
376
329
344
387
391
383
412
435
449
481
487
467
367
242
144
117
143
158
200
233
228
200
117
140
197
254
234
175
134
146
184
217
252
245
218
242
292
313
289
206
185
243
305
332
313
269
269
286
342
356
314
289
324
338
302
311
362
388
408
442
447
428
437
485
493
513
511
525
580
593
591
565
518
527
584
573
538
456
341
309
357
447
547
561
504
463
454
449
460
477
488
496
519
524
462
393
376
409
443
453
449
433
412
426
467
473
494
569
536
466
404
393
435
483
500
477
459
457
473
496
477
435
405
398
429
469
481
503
489
469
440
400
398
399
396
406
426
463
533
636
716
720
738
774
846
888
855
808
759
678
601
543
523
461
366
318
310
305
321
383
406
431
490
545
592
644
668
678
643
592
571
568
599
645
669
630
561
566
632
665
640
660
708
731
726
717
717
690
689
693
763
799
785
760
722
654
634
688
758
790
826
827
727
653
678
714
782
848
835
809
803
842
877
891
824
779
789
803
803
842
974
1023
1023
882
796
811
881
927
951
948
961
963
947
929
925
908
943
1000
1023
1023
1023
1023
1023
1023
999
927
973
987
961
930
893
859
856
842
796
799
840
856
857
837
813
803
758
792
892
951
926
856
755
657
602
656
737
756
744
779
796
830
866
844
840
866
870
902
949
973
997
1011
935
880
850
839
840
893
940
944
1023
1023
1023
1023
899
782
699
674
697
726
692
691
792
814
760
731
718
671
623
646
670
714
763
811
821
814
794
830
862
882
901
823
711
742
873
962
890
729
640
594
568
533
511
586
696
667
559
519
603
662
624
515
418
383
368
392
434
460
470
462
447
418
410
451
516
566
589
566
518
465
456
458
427
451
459
466
437
397
401
456
483
438
356
314
319
313
295
292
324
376
427
409
359
352
383
373
345
312
298
265
239
245
239
202
180
181
185
160
121
110
92
58
32
17
10
9
5
3
2
2
1
1
1
1
1
1
1
1
1
1
1
1
1
1
1
1
1
1
1
1
1
1
1
1
23
43
104
184
273
335
364
365
360
366
362
291
156
79
41
21
11
6
4
2
17
59
111
147
207
288
375
446
491
534
509
478
491
482
491
475
471
509
535
493
458
428
393
375
397
389
353
344
346
362
371
420
487
500
456
409
372
355
402
419
443
476
522
554
556
547
550
575
563
518
468
413
405
473
538
570
520
467
454
480
565
631
625
588
526
521
600
659
662
690
718
712
657
629
640
694
733
770
749
690
648
600
572
625
654
627
597
637
677
623
563
558
566
576
548
499
502
508
495
479
433
405
410
430
441
453
458
464
472
474
493
500
451
411
439
479
531
587
574
588
565
480
417
422
452
471
524
555
532
485
494
550
545
523
562
553
534
545
525
530
567
624
706
732
663
596
576
541
501
530
580
624
658
673
679
679
651
624
604
572
567
603
605
593
617
645
654
653
652
612
559
580
616
600
586
675
727
716
736
740
719
711
693
654
593
541
540
587
664
655
629
631
613
580
551
563
623
661
691
713
670
638
622
613
621
636
632
656
685
664
684
694
656
609
584
602
578
576
610
643
672
693
676
648
665
606
548
560
608
650
642
678
683
626
583
532
517
522
515
523
522
553
579
578
511
476
489
573
683
715
673
627
553
516
565
618
641
657
626
555
526
514
547
578
573
560
552
622
682
716
780
865
934
938
890
830
813
798
732
665
588
468
354
256
222
242
308
402
482
526
540
508
515
562
562
560
540
533
533
539
506
496
487
517
545
552
547
539
551
587
538
502
522
559
594
562
520
490
512
512
510
516
527
553
607
615
595
587
565
534
476
456
497
556
589
605
605
583
516
473
530
575
529
475
469
497
578
642
650
665
669
629
606
634
693
704
680
685
640
608
642
671
684
719
736
698
633
645
672
676
651
663
689
642
592
518
440
437
451
467
511
585
591
527
468
444
449
435
414
440
463
431
411
458
516
486
443
415
395
391
400
431
410
358
302
296
344
404
451
498
512
496
451
442
437
426
478
481
435
402
411
453
475
471
487
496
474
451
457
462
437
398
418
451
443
406
398
450
485
507
499
453
444
409
362
381
444
462
474
470
460
415
358
320
304
336
378
383
390
400
420
431
441
442
463
467
430
329
274
305
342
398
445
482
471
468
477
456
418
439
457
443
446
482
509
519
519
462
409
430
472
488
456
461
496
528
547
535
554
566
514
499
504
510
514
502
523
570
545
521
527
527
545
570
592
542
452
428
466
502
505
541
582
626
656
628
584
524
452
385
346
350
372
427
487
535
549
549
547
518
470
458
490
484
442
456
496
494
514
548
537
507
522
560
536
494
518
580
542
459
455
446
432
448
472
526
566
551
579
641
674
661
624
671
747
813
842
824
811
808
780
641
454
310
264
265
242
259
327
369
404
444
498
530
527
504
479
497
523
530
540
561
562
551
549
543
545
535
536
554
578
584
582
561
600
633
609
560
512
566
608
581
544
535
530
522
481
450
439
466
511
553
585
583
562
556
553
544
562
612
611
602
607
587
603
641
599
573
567
580
597
601
608
620
644
649
630
671
713
689
638
639
679
677
651
658
639
589
596
633
676
734
755
684
613
610
602
559
550
589
642
601
527
489
496
506
497
449
398
344
326
321
337
345
338
340
343
347
379
395
364
315
298
310
340
374
394
406
406
393
422
445
466
434
392
380
411
396
368
354
354
369
362
334
376
438
457
429
384
385
416
447
510
531
525
490
447
496
523
467
441
473
486
492
483
435
400
334
315
392
448
461
468
513
538
520
446
388
432
487
510
580
628
609
547
505
476
438
408
416
485
517
477
435
413
434
462
469
472
490
512
540
560
590
607
565
513
472
455
455
480
515
564
595
553
536
550
554
526
507
520
513
502
526
535
490
439
451
442
440
474
511
517
516
532
535
521
478
455
446
465
479
494
508
522
527
535
568
578
568
539
538
500
421
386
455
522
546
521
476
501
541
526
499
488
472
460
504
605
708
789
833
831
826
797
736
653
530
378
297
276
253
222
224
250
265
262
324
393
411
424
451
468
463
461
446
388
392
446
430
415
466
513
500
409
348
328
346
351
399
431
453
507
515
474
457
441
453
456
433
442
435
402
406
443
502
519
534
544
512
429
407
450
467
464
474
447
407
368
388
426
452
477
516
552
551
524
479
477
513
527
518
513
516
550
598
608
593
578
564
563
585
587
564
532
542
601
623
529
485
503
530
573
578
523
462
440
448
480
514
514
523
494
419
381
422
456
427
387
370
378
368
361
369
388
335
307
362
376
375
390
362
348
372
385
372
365
369
399
437
453
461
446
426
417
473
511
517
497
478
462
449
401
366
370
434
474
452
414
368
400
473
495
470
475
499
528
546
527
537
571
563
564
572
549
520
492
487
504
492
534
587
560
509
472
421
356
409
503
541
580
593
599
609
589
520
430
427
517
559
572
576
552
536
556
537
552
545
542
558
544
540
519
487
523
521
461
410
474
575
623
587
549
530
521
546
582
578
538
516
532
566
614
619
591
583
592
586
584
560
515
447
458
522
535
516
531
552
549
508
502
494
449
418
496
588
616
566
516
465
461
495
531
578
597
576
543
519
532
527
505
527
521
550
579
559
563
583
574
557
596
648
670
693
720
783
868
904
882
800
680
573
448
320
277
259
251
322
392
415
399
383
405
425
416
469
499
516
529
532
501
479
456
423
455
476
492
537
581
558
504
506
517
480
551
613
597
567
517
529
535
529
527
476
467
538
560
545
553
555
526
507
515
556
586
583
578
573
552
480
492
542
600
648
685
664
583
539
512
496
542
586
583
585
588
648
669
672
640
616
594
587
631
696
720
726
701
673
655
686
715
706
672
661
659
633
581
551
554
538
503
454
453
489
515
528
526
482
395
372
380
378
391
424
386
379
454
531
564
565
477
393
344
325
324
329
367
391
400
445
488
522
538
508
466
463
471
454
429
455
462
433
451
453
454
515
568
557
497
470
436
400
411
445
462
431
405
404
437
487
518
502
508
534
555
550
519
496
496
519
543
556
547
537
518
464
435
473
513
532
515
521
508
478
473
480
525
568
574
540
527
540
563
546
500
504
528
552
591
590
538
498
506
503
509
529
584
583
551
561
557
512
468
434
474
475
490
528
569
551
543
593
585
523
523
571
613
588
537
510
516
508
498
507
492
472
460
467
473
474
472
476
456
462
469
476
468
452
478
519
533
488
462
483
524
554
547
542
542
549
558
515
493
478
450
460
477
494
487
494
550
631
716
777
770
799
830
813
800
799
777
720
618
425
240
141
147
226
251
284
360
430
446
455
475
465
439
427
446
456
470
486
490
508
505
478
467
500
494
459
480
524
530
530
587
615
570
514
510
543
542
524
508
470
438
448
454
449
474
517
531
547
575
571
566
554
503
510
537
597
576
546
542
570
557
543
545
536
513
516
528
537
540
561
602
640
666
653
616
601
598
614
641
651
661
670
653
645
626
623
613
623
625
607
616
631
609
552
536
558
549
501
444
461
507
520
486
448
443
429
409
402
370
334
329
365
429
452
452
429
383
355
393
440
424
399
420
395
320
325
411
497
523
482
443
430
439
468
475
444
398
387
402
424
412
396
385
381
366
377
423
464
457
453
495
544
575
597
567
499
489
519
544
502
466
427
412
452
469
484
456
435
454
474
459
435
443
455
469
496
531
536
505
489
493
501
517
492
498
536
569
595
554
529
476
435
424
436
458
441
458
503
517
514
506
495
517
515
537
550
523
484
483
491
492
511
514
534
560
558
588
603
564
530
516
489
482
468
429
422
428
432
398
426
483
512
538
548
519
481
455
450
462
469
477
510
546
557
540
535
571
547
481
439
413
414
444
471
507
502
439
428
468
530
538
505
477
499
586
695
788
822
832
840
846
814
751
680
565
440
356
298
220
185
187
181
214
269
320
378
442
501
525
497
484
491
504
508
517
534
526
506
505
489
484
504
534
547
550
535
515
526
579
581
530
488
515
554
521
512
532
550
569
524
484
543
591
604
581
547
513
502
507
557
593
589
556
544
581
606
574
561
559
563
560
543
544
536
573
604
603
625
646
628
655
648
636
643
633
624
628
655
681
675
681
675
657
645
640
628
624
645
635
614
559
540
498
475
497
501
485
490
502
514
486
414
399
449
486
476
413
372
354
354
355
371
429
452
430
397
378
374
394
376
368
388
404
419
413
408
448
480
481
450
435
440
462
453
432
416
444
459
455
442
432
460
487
509
499
490
454
464
496
476
418
405
443
491
550
545
497
482
464
436
455
492
532
546
531
499
494
499
488
503
466
402
425
492
507
528
532
521
531
535
510
484
481
485
463
455
490
514
546
575
549
505
451
458
495
501
503
495
501
508
519
515
509
523
534
556
541
509
514
497
440
432
471
485
478
505
516
498
477
450
443
435
446
445
461
468
433
440
469
522
567
530
510
503
501
463
443
473
516
512
480
476
489
490
516
551
516
502
534
585
619
669
735
801
829
845
817
780
754
704
617
484
350
277
215
191
207
270
359
420
416
422
483
507
436
413
472
528
557
565
530
468
453
521
562
575
588
590
564
493
488
547
579
598
553
518
508
495
502
497
463
477
529
547
521
553
612
624
602
582
595
611
602
567
541
526
529
539
556
553
551
588
624
593
519
519
585
645
633
619
637
604
558
569
640
655
610
570
561
569
564
559
594
585
562
555
584
602
607
594
566
560
571
569
571
564
537
486
470
474
457
397
381
433
488
503
485
450
405
386
399
417
383
384
388
383
424
446
391
368
389
426
448
456
425
366
347
377
407
394
421
439
459
465
464
446
399
378
416
486
524
551
548
503
462
458
473
488
464
447
449
480
488
525
539
515
479
429
430
438
428
482
530
535
489
465
468
512
561
582
497
405
459
521
521
533
556
541
529
548
566
531
467
428
411
394
398
436
508
549
559
552
533
516
490
454
451
497
530
536
557
599
586
562
537
526
504
489
511
516
527
545
504
472
456
436
473
493
505
506
507
515
522
514
505
481
474
493
488
506
498
502
522
541
538
542
565
533
452
457
513
522
527
526
515
534
523
500
479
485
495
494
468
453
478
503
519
536
575
630
711
771
783
811
852
833
807
734
580
449
378
317
315
283
247
260
284
326
362
396
388
402
441
468
508
527
532
516
471
462
484
482
450
464
464
492
504
521
544
584
548
481
457
467
500
560
597
578
576
576
583
574
549
505
483
498
515
533
533
541
582
608
568
547
544
526
481
453
480
520
535
564
588
629
679
664
610
520
486
557
635
665
677
633
613
609
586
570
616
682
712
711
659
575
570
630
654
665
641
590
594
625
597
540
565
599
620
590
556
510
501
492
455
431
407
428
459
465
456
482
510
499
449
407
361
356
358
387
390
354
386
392
389
426
487
508
476
469
493
475
428
416
446
453
483
475
437
430
449
458
450
454
462
448
433
461
495
528
530
485
485
513
517
508
487
487
494
506
508
493
453
459
475
429
422
472
525
545
544
548
522
492
484
505
506
490
486
491
501
510
488
511
561
575
533
495
479
469
467
457
477
506
548
570
520
493
496
524
533
542
520
491
495
506
521
510
532
552
584
582
561
495
442
404
416
474
523
547
582
579
533
497
439
415
435
463
438
432
466
477
462
430
437
466
511
546
492
454
467
509
537
568
583
571
576
554
496
431
412
445
492
501
477
477
457
466
514
566
602
646
675
753
852
877
839
821
826
795
737
640
533
423
338
299
301
310
293
271
280
328
381
415
447
487
501
527
543
498
459
487
527
553
545
480
447
443
432
422
431
472
485
502
515
529
537
536
569
605
621
631
637
612
536
457
436
462
521
528
524
510
493
488
482
457
437
429
499
598
607
558
546
559
563
560
550
549
571
597
613
618
637
607
589
597
622
571
540
569
587
583
573
581
603
622
622
649
673
659
615
590
654
692
668
617
568
553
572
554
542
525
528
544
551
529
477
441
422
407
410
422
378
328
328
352
377
392
421
398
395
406
413
398
385
383
374
382
443
483
514
522
489
466
480
466
440
433
395
371
374
410
451
485
525
558
518
440
419
449
461
476
463
474
463
464
460
442
456
501
527
513
478
457
450
471
517
533
522
551
574
548
495
473
458
424
459
482
496
542
558
513
467
471
490
493
484
481
472
485
508
508
512
528
523
495
502
538
554
532
539
529
544
543
491
466
513
527
515
481
428
447
526
559
553
532
532
546
560
552
524
516
536
526
482
476
499
514
501
491
487
491
476
477
461
448
452
466
494
492
518
564
567
542
531
534
509
488
428
452
469
469
468
480
472
461
477
481
506
561
589
572
558
515
445
432
507
596
648
669
664
700
717
742
796
846
855
829
780
693
597
503
393
298
230
222
233
242
280
353
423
456
465
497
499
471
474
490
470
457
489
520
468
441
477
509
490
465
505
572
602
602
565
513
512
512
514
504
514
539
534
538
527
518
521
516
516
500
475
471
506
522
535
547
547
550
520
487
508
514
559
607
612
597
574
531
542
571
581
605
625
640
656
646
611
590
586
604
643
639
596
607
616
598
584
619
671
692
650
606
616
627
629
643
637
625
616
604
557
517
497
507
517
491
459
457
466
469
477
448
405
417
466
496
515
471
418
388
378
403
390
340
325
348
403
434
432
423
451
519
520
481
412
372
352
370
421
456
483
485
506
539
503
465
486
512
508
488
444
383
362
389
458
491
501
518
514
474
451
440
427
455
476
484
513
484
445
446
484
501
507
512
523
535
546
534
520
540
543
501
477
432
462
527
547
522
433
400
451
483
497
517
520
499
466
463
454
455
467
463
443
440
467
517
529
533
527
489
503
529
500
469
499
548
536
489
487
512
500
473
474
533
549
529
513
488
453
439
415
423
472
539
516
468
476
484
502
477
426
472
528
530
500
494
517
508
449
420
442
428
439
513
541
526
532
508
518
518
487
480
468
442
434
462
503
519
504
476
505
509
543
642
713
752
765
803
850
867
797
694
607
506
424
391
350
293
284
288
296
326
360
397
427
455
474
470
463
484
503
487
478
476
486
491
446
470
469
483
535
546
529
517
504
483
532
530
496
517
587
658
646
617
603
555
507
468
468
493
491
477
481
483
515
530
524
557
558
527
523
536
520
519
563
578
582
591
598
614
625
641
658
653
627
628
615
576
551
556
601
617
630
643
626
633
664
656
606
622
671
653
640
612
565
540
557
600
630
611
595
595
576
547
513
480
474
477
491
490
452
445
433
408
412
375
312
294
319
316
361
421
464
483
454
416
391
365
377
399
429
461
491
493
463
428
388
365
400
432
428
414
418
455
469
446
423
376
390
435
465
484
453
449
468
494
546
544
503
491
459
415
432
484
485
465
445
458
511
536
533
539
484
439
440
443
414
428
439
461
502
537
574
560
542
502
450
458
508
463
412
412
447
517
583
589
557
516
448
412
433
492
500
479
501
495
510
524
525
525
516
468
444
460
505
522
520
549
554
523
482
463
477
482
502
542
563
561
532
526
529
532
553
552
497
423
389
405
459
491
532
550
503
472
439
431
459
485
477
496
499
522
553
505
429
395
436
458
476
554
601
611
592
547
499
474
432
440
477
464
454
486
488
473
465
505
594
667
704
727
771
796
781
793
836
864
830
737
615
468
354
270
223
230
272
304
320
363
429
446
424
414
455
479
476
482
446
427
477
511
502
444
465
498
521
521
521
541
545
511
499
508
502
485
511
548
542
542
547
508
475
466
497
530
541
501
485
484
525
577
576
531
515
532
536
557
556
524
521
514
503
519
548
584
587
570
563
554
563
608
654
658
633
630
636
610
585
574
569
622
703
724
688
651
621
645
695
682
638
579
549
575
598
622
627
597
537
491
485
537
583
537
462
383
337
308
340
412
441
463
488
490
456
428
412
387
355
366
399
434
416
375
378
412
456
466
432
424
441
452
452
430
420
426
422
438
454
439
429
432
489
489
470
456
462
474
476
463
452
452
449
458
465
463
467
473
501
529
543
537
508
487
505
526
518
505
497
482
479
444
394
419
467
498
495
487
502
533
532
556
574
567
552
529
472
455
479
503
506
485
476
495
518
539
501
467
462
506
492
466
424
437
478
492
487
526
560
544
534
566
573
553
541
496
483
517
520
511
507
529
515
489
487
502
478
467
483
496
493
530
549
506
501
501
480
504
528
525
546
557
567
580
612
625
641
647
584
500
436
402
435
471
501
478
401
368
391
437
477
505
552
547
506
514
534
525
512
515
512
509
532
515
478
471
486
498
521
495
481
503
507
464
400
421
474
492
494
514
529
543
613
708
725
758
807
812
816
830
856
868
819
733
580
427
310
249
209
175
224
284
338
368
375
381
380
379
417
463
499
507
472
468
489
486
504
541
503
496
516
515
482
463
529
598
578
524
495
462
437
464
496
525
526
486
458
501
514
554
596
624
618
545
486
489
480
506
490
453
446
473
505
512
525
535
501
479
512
596
641
613
603
622
611
561
520
508
562
623
637
641
663
657
628
596
547
557
602
634
636
599
569
539
541
568
611
625
613
611
602
618
578
493
458
473
455
481
504
455
426
411
406
397
397
415
414
410
404
367
358
380
407
407
385
413
427
420
385
346
313
356
427
488
496
475
477
455
438
421
416
451
476
469
475
446
433
425
418
414
436
454
484
520
543
510
458
419
401
437
478
516
497
477
485
512
524
520
495
444
424
419
435
427
422
427
438
472
546
572
560
548
523
503
471
435
483
549
537
496
505
537
549
529
490
470
458
474
496
521
515
486
501
510
466
467
510
520
512
490
478
442
449
510
562
608
624
592
524
516
560
594
570
502
479
461
485
503
509
537
543
554
584
552
535
518
484
483
488
490
479
484
496
525
532
495
475
478
482
484
478
493
567
642
640
624
577
492
435
430
402
381
366
336
397
548
624
607
546
517
536
556
562
562
531
514
535
567
609
672
742
814
884
926
901
868
840
839
756
601
479
362
265
166
129
192
246
295
382
444
446
420
486
555
572
541
560
573
526
477
482
555
598
607
608
566
509
480
501
522
507
461
490
548
560
543
521
514
506
525
541
553
542
553
586
569
548
552
577
574
540
509
490
484
516
540
562
546
531
550
583
572
582
620
632
599
617
620
599
608
617
629
638
659
680
680
682
672
643
625
638
642
645
671
690
680
664
662
641
606
594
603
556
524
572
612
618
624
638
608
562
526
508
519
531
534
530
524
503
468
448
413
392
388
396
402
403
412
427
417
362
335
377
393
402
450
487
472
461
458
422
410
456
497
495
467
475
517
536
529
502
474
472
453
416
409
460
505
523
542
504
479
488
473
450
467
499
533
509
458
475
502
517
485
447
483
553
578
556
525
499
496
534
554
530
502
507
495
475
474
491
498
519
542
567
558
515
492
473
443
393
403
478
517
522
529
532
529
530
544
495
485
527
539
544
536
530
519
507
478
499
565
596
609
606
576
547
526
520
489
444
469
506
462
405
429
500
530
567
584
574
549
537
528
504
467
448
484
553
563
560
565
558
538
515
512
485
502
547
522
509
524
525
507
509
514
520
510
476
461
451
435
486
549
557
526
505
549
586
586
588
632
666
669
677
730
797
831
811
788
798
744
676
596
480
389
333
291
248
246
289
360
388
398
408
420
473
537
549
536
528
518
506
520
522
494
562
585
544
531
528
540
557
574
555
518
503
505
513
540
561
573
570
503
472
471
501
562
580
580
551
542
580
573
542
546
589
626
632
623
602
580
537
500
497
511
570
611
617
607
600
640
653
626
599
567
558
569
598
620
608
587
598
647
656
656
701
726
727
681
651
661
708
729
703
666
636
607
596
591
542
505
503
499
486
463
465
458
463
474
448
447
458
426
378
380
403
425
455
477
456
409
394
406
435
456
410
401
400
370
345
336
351
397
465
475
427
410
427
420
418
463
433
414
454
487
481
476
479
464
468
492
511
514
534
514
440
401
381
392
447
503
496
474
462
479
513
533
540
565
551
500
478
468
446
438
431
456
509
568
599
566
515
469
488
521
495
466
500
530
511
508
532
553
528
491
509
532
524
464
432
437
458
472
499
511
523
557
553
507
500
540
534
508
495
490
492
526
545
564
603
566
486
460
480
493
498
483
530
556
532
549
570
574
567
573
525
471
456
473
472
454
478
504
550
592
579
532
479
448
473
518
515
485
444
408
400
485
516
481
477
462
465
477
497
504
487
492
523
541
521
481
486
507
488
507
564
590
591
604
692
774
807
821
837
840
801
765
716
593
450
371
320
268
232
213
289
367
346
324
345
386
393
413
476
537
521
492
534
543
519
517
514
477
481
521
518
492
494
510
507
516
515
538
537
525
520
520
480
494
524
521
545
552
527
474
461
500
565
572
552
504
464
481
502
482
478
492
537
602
621
616
596
544
541
535
513
502
548
595
628
662
684
671
599
568
571
598
609
618
653
661
626
597
604
616
663
712
694
637
602
596
624
660
639
596
566
562
558
560
568
553
522
487
459
457
467
482
452
433
429
424
440
409
369
364
352
339
391
464
468
462
466
431
358
326
338
387
409
434
458
462
457
472
468
452
430
420
416
409
408
409
386
384
415
469
478
465
453
438
433
475
474
480
490
477
447
475
486
452
443
451
496
540
542
545
538
515
469
463
495
482
474
450
444
456
460
454
443
414
409
472
527
508
492
508
523
500
465
428
420
460
536
560
522
514
537
543
505
489
494
481
463
424
422
486
513
492
461
464
496
522
539
537
529
514
514
527
530
494
474
470
424
408
458
524
570
579
568
579
582
556
494
425
410
446
477
501
521
503
494
489
504
529
518
463
399
443
509
501
485
463
458
458
431
433
471
494
521
513
495
509
508
513
463
387
395
439
524
553
542
530
508
474
473
474
523
586
634
669
708
741
800
876
912
870
837
784
684
577
471
363
271
164
109
98
129
257
392
435
439
438
438
466
492
477
477
473
464
459
467
455
442
449
517
566
561
517
474
452
446
452
463
485
488
483
465
453
439
455
484
489
485
504
533
548
574
575
540
506
502
513
533
548
569
578
578
543
534
531
503
503
506
504
507
510
520
509
529
573
594
609
634
643
560
501
518
589
674
723
721
686
690
665
621
641
643
616
609
632
635
625
622
553
510
503
481
487
492
488
523
547
543
478
474
455
450
463
481
443
369
325
352
401
409
381
380
382
350
382
458
481
463
440
437
461
446
423
404
362
296
290
338
353
384
431
464
492
513
498
475
462
444
433
442
460
486
497
466
432
396
384
396
433
477
520
529
501
491
460
449
467
447
461
487
454
440
443
472
522
539
511
486
494
531
553
538
505
471
467
491
491
435
399
406
431
437
432
435
472
505
509
491
499
473
462
499
530
555
501
464
511
533
479
448
503
561
532
502
498
468
454
438
447
473
493
524
558
546
515
513
515
527
549
522
500
496
535
546
523
483
480
474
474
447
446
471
471
442
433
438
451
461
483
472
466
493
518
512
506
475
426
451
476
486
500
537
570
559
562
525
500
506
490
450
418
404
445
515
607
653
645
667
737
792
814
807
792
760
728
660
553
460
367
277
206
202
214
247
317
392
425
482
522
497
461
451
472
474
448
447
449
437
433
445
485
540
542
504
527
558
582
581
552
532
537
529
531
535
517
485
474
485
497
506
558
578
548
519
501
468
427
455
501
529
530
506
486
500
506
555
610
616
605
622
631
640
596
555
542
535
572
594
606
595
629
661
638
590
582
571
554
544
548
569
625
680
711
701
661
655
694
686
619
586
552
511
487
529
561
558
551
546
529
511
505
476
449
385
318
351
397
392
374
337
332
364
420
435
404
368
361
351
358
417
447
397
337
337
360
407
491
536
541
510
441
418
456
471
473
503
511
491
433
373
354
382
398
393
433
462
429
411
409
407
427
494
565
572
551
514
457
460
483
467
484
554
561
526
534
548
535
492
453
446
463
476
453
492
511
501
524
560
562
554
534
529
516
495
502
491
480
497
525
513
498
518
532
543
546
548
526
536
553
520
486
476
488
473
479
537
592
558
522
526
526
534
526
534
535
532
527
534
523
521
526
503
487
452
395
389
476
551
563
531
488
498
498
466
511
591
633
543
482
478
472
490
492
467
480
491
486
478
506
563
579
553
502
492
487
491
500
539
571
614
638
698
783
819
849
845
822
800
783
733
670
595
504
403
331
304
283
272
307
326
310
333
382
410
434
449
478
539
599
586
555
539
526
501
443
407
432
498
551
569
543
522
526
590
637
637
576
519
477
479
513
512
454
465
524
545
532
488
454
469
551
613
620
607
586
574
588
636
633
571
542
564
571
576
572
551
540
547
586
611
584
548
549
574
573
569
600
650
670
644
643
635
676
694
682
689
691
696
712
714
695
681
653
598
598
621
606
551
540
550
543
510
459
417
431
470
497
463
454
503
507
478
489
521
484
445
464
464
467
436
382
404
460
465
425
387
388
425
446
473
504
497
462
478
470
465
438
431
488
517
457
391
417
493
516
481
466
476
495
526
549
517
494
489
510
523
526
518
482
485
493
517
520
523
539
529
507
499
497
506
525
537
529
515
484
457
426
426
472
549
602
593
553
548
552
520
492
528
549
553
528
516
493
436
426
510
567
570
580
564
526
515
506
502
511
523
495
489
510
547
566
535
509
505
540
557
556
582
618
619
584
532
479
465
483
471
482
524
525
475
468
512
535
547
578
567
529
455
412
425
449
493
525
524
497
484
437
443
498
532
556
580
559
504
479
495
519
526
535
563
530
490
447
385
410
493
558
626
667
683
720
744
784
875
908
885
837
782
686
579
471
346
259
224
220
211
229
294
362
414
463
491
498
516
495
459
478
531
583
572
508
497
492
494
510
529
530
531
536
526
524
545
540
501
484
448
402
376
429
521
567
562
544
516
482
497
555
604
595
570
540
531
528
499
456
489
533
548
520
511
535
522
507
526
529
534
537
516
475
488
557
606
616
627
628
637
658
682
658
613
638
653
671
680
659
634
615
613
650
690
696
668
638
621
582
548
508
498
533
615
642
567
478
432
386
367
420
437
424
396
387
402
442
479
462
459
452
428
393
382
417
419
388
383
433
488
506
498
464
460
456
401
390
440
462
432
399
439
506
536
485
444
466
481
462
426
439
461
521
504
469
455
482
508
513
484
474
485
517
542
537
521
503
485
456
459
470
476
510
500
469
495
538
544
535
505
511
543
537
540
514
459
409
413
419
428
472
532
548
554
566
578
568
520
502
518
485
448
454
513
543
547
538
536
525
478
454
471
501
523
505
505
517
534
533
557
564
538
519
550
574
544
492
466
463
476
500
514
500
522
556
552
526
523
538
526
477
455
435
413
421
433
475
519
557
574
533
507
506
491
510
512
483
490
503
477
437
450
508
551
559
524
500
501
478
453
488
514
548
578
655
736
808
846
845
856
887
881
830
719
568
430
324
266
247
265
279
306
369
398
392
373
398
414
404
383
439
502
523
512
487
479
505
531
551
570
500
441
467
499
557
589
575
534
518
503
480
453
445
452
448
495
551
572
554
533
510
500
522
548
542
520
515
523
531
542
546
558
544
505
526
529
572
625
596
562
560
536
542
541
516
541
572
569
590
618
630
678
665
601
593
579
575
592
629
660
655
671
708
724
692
661
633
530
504
576
629
591
572
555
525
458
411
394
414
438
459
449
408
402
406
372
372
394
408
410
408
428
461
458
398
339
333
347
357
379
426
426
379
346
353
398
473
536
510
498
487
428
379
368
391
410
432
455
434
423
414
440
446
442
416
398
414
462
508
536
530
501
469
437
478
515
481
473
489
497
496
488
474
482
487
471
443
463
459
467
475
505
535
548
564
550
494
449
414
370
372
425
463
468
492
498
495
517
506
468
476
511
519
513
504
485
470
472
515
518
534
553
574
542
481
456
465
478
475
463
460
443
437
453
499
523
538
534
534
525
515
524
502
481
464
439
425
430
440
433
435
484
506
488
481
484
520
510
460
453
473
445
462
498
520
538
510
471
476
523
561
544
521
500
453
400
430
489
465
421
425
468
520
558
616
684
733
781
822
852
807
755
740
697
589
469
376
318
263
223
232
290
350
389
401
370
360
390
404
441
485
491
481
492
478
454
448
464
493
489
503
521
539
553
542
485
449
450
482
527
557
542
522
525
557
581
558
523
509
514
506
464
463
513
550
555
537
495
494
526
531
517
504
506
510
495
527
560
558
558
597
611
609
598
580
571
590
608
622
595
583
641
667
650
629
620
639
663
664
647
651
693
689
608
548
565
604
613
606
617
602
559
553
536
501
462
444
442
433
436
441
460
483
447
368
382
413
383
356
335
341
386
442
482
463
432
432
410
370
386
448
470
449
393
350
343
320
349
382
402
459
470
503
530
478
447
450
475
469
428
404
438
461
489
478
465
453
452
411
436
504
532
521
484
483
482
467
474
496
514
520
508
493
496
526
519
530
567
536
544
572
556
513
484
485
464
436
449
456
453
465
453
473
525
542
523
524
515
532
553
534
490
442
422
431
451
476
529
591
605
573
553
571
561
549
533
566
557
503
467
465
468
523
567
600
602
577
564
533
505
496
514
517
535
569
571
510
464
442
456
503
504
488
531
555
511
465
449
473
528
538
536
526
534
553
594
587
555
516
516
517
497
498
507
491
462
446
473
516
553
578
541
525
547
594
689
761
806
818
828
893
927
906
819
696
563
449
368
290
221
158
143
182
271
387
481
484
480
504
476
474
542
601
594
564
541
535
530
508
507
493
482
478
483
499
526
531
543
595
595
548
461
419
438
513
573
577
571
561
598
629
632
589
514
471
505
545
566
566
515
506
528
586
592
573
576
576
511
455
487
564
617
622
633
607
554
539
594
632
620
574
585
595
578
619
686
731
752
751
710
649
609
626
653
659
656
652
624
583
578
598
646
673
641
608
536
467
419
433
442
389
388
399
404
419
435
435
442
437
456
471
473
481
444
439
446
428
405
402
387
372
377
406
433
435
464
483
476
449
429
440
455
436
401
432
509
520
513
470
438
441
445
427
405
423
457
481
530
540
519
504
505
491
470
463
458
466
510
537
552
565
553
540
542
531
499
445
435
488
503
473
497
520
549
530
464
434
471
477
467
509
558
544
544
518
488
505
536
540
545
567
569
511
455
465
477
468
468
499
526
530
510
501
547
547
502
478
493
530
524
534
562
554
525
502
499
499
492
489
500
487
496
532
566
598
606
586
553
526
513
503
485
471
468
422
407
432
481
508
490
455
461
486
493
483
486
494
526
535
545
534
503
488
514
550
556
534
450
378
405
489
513
528
517
493
490
486
471
453
455
539
635
696
746
766
787
802
834
855
859
860
815
716
611
488
381
326
286
236
224
260
320
347
398
448
401
349
388
452
489
527
521
504
507
513
522
541
539
556
548
545
541
540
519
501
530
539
547
529
506
497
490
495
461
449
492
461
484
538
561
566
557
540
527
474
493
542
564
588
593
566
531
524
540
527
479
489
521
570
615
614
620
617
601
531
484
504
500
525
610
670
648
581
581
581
633
693
654
616
652
682
669
657
627
629
624
602
585
604
614
597
576
549
536
497
480
481
480
473
449
413
391
389
350
362
405
456
534
545
495
469
471
456
399
357
344
360
340
347
352
374
437
483
495
485
474
446
454
500
536
515
460
467
475
461
427
446
469
455
414
382
372
394
443
480
498
520
512
469
506
541
502
458
445
491
544
564
571
564
530
481
477
486
474
505
529
526
512
502
479
479
480
478
473
493
532
559
549
513
454
415
437
481
485
507
528
522
510
531
551
525
497
478
479
481
492
506
496
476
474
471
432
439
469
472
483
526
542
575
567
508
483
474
502
494
499
533
544
567
559
570
592
571
533
459
454
463
467
472
495
519
527
524
493
471
446
421
384
387
425
451
465
537
589
603
575
507
434
374
376
432
466
499
535
557
552
524
478
479
466
457
450
440
417
394
421
467
506
516
564
636
714
784
794
801
844
883
888
880
849
717
544
440
356
263
194
181
197
226
246
295
364
399
430
453
478
513
518
507
472
445
418
385
397
434
488
555
571
559
565
579
557
547
531
553
536
451
464
488
513
513
500
456
417
402
447
490
513
524
517
531
565
560
547
518
499
516
531
546
581
623
637
604
572
556
512
488
506
532
558
609
580
549
540
548
559
595
612
599
609
654
657
656
629
585
577
583
614
655
699
692
668
671
649
616
616
582
556
577
540
468
480
476
471
471
435
407
419
433
436
421
431
413
349
348
347
362
358
361
427
463
453
413
386
430
484
494
433
385
374
383
343
320
411
472
445
392
405
457
495
487
463
454
416
352
352
414
478
457
467
497
505
514
533
519
485
454
466
469
469
432
387
397
416
437
491
515
538
525
489
475
494
517
537
535
481
441
440
474
516
513
520
547
536
489
456
427
422
423
444
469
474
501
529
497
472
465
465
463
471
489
480
542
578
582
546
516
491
465
468
451
441
422
419
458
517
481
441
459
495
496
505
497
534
554
557
558
545
516
499
477
456
455
486
490
490
519
557
536
485
467
469
445
399
409
462
538
585
568
522
488
463
450
458
470
471
459
454
466
460
470
473
442
416
396
413
425
416
417
426
442
429
438
452
471
556
632
702
771
785
736
673
640
650
622
567
512
370
197
122
120
133
182
228
272
284
274
290
342
402
448
461
454
456
519
525
534
535
531
539
507
468
448
438
436
438
458
497
557
596
576
528
490
462
479
515
556
553
516
532
524
525
568
581
578
551
497
490
516
535
562
597
634
650
659
677
679
628
570
578
652
687
617
545
537
573
616
623
608
618
682
705
699
663
625
599
600
646
643
635
646
669
654
621
645
721
750
738
709
656
614
579
537
541
525
525
574
623
557
494
407
358
381
424
448
432
417
420
453
507
498
487
447
402
349
307
365
409
416
417
435
438
419
438
480
495
489
456
458
467
468
489
526
515
459
430
433
417
396
400
469
550
519
477
487
502
492
526
542
513
493
509
501
470
479
488
499
467
451
488
511
524
582
565
538
562
578
550
489
460
480
507
499
476
441
496
545
526
550
577
576
539
517
539
526
509
566
549
492
534
552
526
512
517
544
568
555
511
496
524
528
522
501
508
539
548
569
611
620
578
543
542
542
514
558
599
577
515
476
493
503
512
516
537
553
537
526
472
464
499
521
497
496
509
544
580
529
488
487
522
528
523
498
473
499
589
668
652
555
473
461
459
462
491
510
533
574
682
785
813
793
764
758
793
811
806
790
712
579
463
399
346
294
229
208
286
403
420
385
405
418
484
488
465
465
510
564
571
530
535
537
528
580
606
594
574
557
590
622
576
505
516
537
535
528
523
512
511
510
502
487
486
487
497
530
595
628
639
610
569
565
582
551
513
559
581
545
574
610
580
521
518
576
627
630
621
611
606
582
541
524
539
588
650
665
679
697
657
619
644
668
642
626
673
717
730
762
727
653
624
634
643
641
630
632
642
580
529
514
528
495
438
398
397
418
447
439
390
386
420
460
472
429
404
409
407
400
393
414
427
425
420
396
437
448
451
429
411
369
371
409
430
427
423
459
478
466
438
407
398
406
450
495
523
505
473
490
527
517
503
508
495
515
548
530
475
414
422
472
491
479
492
503
493
492
513
531
560
540
483
411
388
403
459
545
578
537
487
467
478
483
494
494
492
529
553
515
491
534
565
528
464
426
439
489
528
541
546
552
555
517
447
454
499
549
532
503
483
490
531
552
499
456
469
481
463
443
490
528
516
533
578
587
522
480
470
445
420
434
464
501
510
510
528
557
549
476
458
475
504
515
491
459
432
425
417
448
499
521
523
543
549
542
543
554
548
520
485
463
458
482
523
582
648
667
674
760
831
850
846
817
795
724
644
584
497
410
325
232
210
259
301
340
381
444
514
545
510
468
465
475
504
507
505
483
460
491
508
511
530
548
567
550
527
498
494
493
485
493
501
544
600
633
610
546
473
417
436
440
434
472
515
532
540
568
586
599
597
571
525
505
512
535
561
585
512
467
479
532
558
562
591
592
528
508
543
595
646
652
645
650
645
614
583
611
694
754
762
690
612
604
607
617
626
651
688
663
601
590
582
538
497
483
479
503
493
474
453
472
505
476
442
440
435
403
376
406
421
433
447
443
418
407
408
419
378
388
420
424
409
397
388
386
405
424
417
431
443
421
374
366
381
402
427
451
457
471
467
466
461
458
451
440
459
511
535
515
502
458
430
439
432
442
458
483
444
445
472
488
505
506
490
484
491
491
447
458
500
538
525
513
489
485
495
483
504
534
556
521
453
456
492
526
513
480
480
481
483
506
507
497
499
523
526
504
506
514
522
532
544
526
533
579
555
518
488
459
471
494
510
500
527
544
497
441
460
505
506
489
469
471
486
513
562
565
530
468
440
470
526
527
476
440
423
428
445
486
560
589
586
583
589
525
440
411
426
474
465
482
528
558
532
520
541
583
617
658
688
770
834
877
848
796
770
752
711
607
496
403
324
280
301
324
321
315
339
377
422
425
409
420
447
453
447
486
556
608
600
549
510
507
478
456
446
449
487
515
530
506
497
544
588
584
569
551
544
555
575
571
531
500
510
530
546
535
514
545
588
584
573
534
506
517
505
478
498
524
542
561
556
577
619
637
610
603
658
666
627
620
626
612
656
698
700
668
665
664
633
616
621
675
703
696
635
587
570
599
604
601
601
618
597
556
553
551
522
512
546
589
571
517
482
460
476
495
477
432
409
427
456
431
390
388
374
387
425
429
431
434
449
456
453
454
439
382
325
351
426
443
422
400
418
466
494
501
478
475
475
482
477
457
444
457
502
533
567
536
511
509
497
513
548
548
535
478
386
363
382
405
425
440
484
536
544
549
567
589
567
451
361
372
462
542
586
600
575
558
539
538
540
570
600
556
462
454
494
509
519
533
544
547
560
525
469
394
334
368
475
551
589
582
553
524
516
530
542
554
579
558
514
494
535
570
499
474
508
569
609
601
570
526
486
479
441
429
467
506
484
455
453
459
499
546
548
507
470
477
526
561
544
486
454
487
553
534
477
464
448
432
456
512
546
571
549
526
496
451
411
399
434
451
450
520
604
643
660
702
736
747
755
792
819
830
856
842
745
575
426
351
285
224
198
214
279
337
336
333
332
352
380
417
457
513
550
577
573
544
552
576
588
538
491
509
540
558
555
522
495
475
483
510
519
559
580
536
476
461
486
476
451
491
521
546
559
545
538
540
559
585
586
587
553
547
545
559
546
528
540
568
593
571
565
571
554
534
520
516
534
591
639
621
593
607
622
649
658
664
698
687
669
655
662
666
638
601
580
591
632
632
577
557
563
565
555
542
535
507
478
442
439
435
440
437
418
435
446
447
427
428
421
420
394
373
365
356
362
374
411
460
499
502
471
431
352
314
331
386
407
408
381
407
507
555
520
433
370
391
405
404
435
439
405
426
464
467
466
465
476
490
505
516
497
485
501
486
476
523
553
462
390
396
399
426
472
477
490
519
500
480
491
465
435
441
428
391
369
427
515
581
596
592
548
543
554
522
530
532
513
493
473
428
419
450
443
429
473
528
551
534
509
502
529
542
475
427
485
537
549
542
516
513
551
525
480
487
472
508
534
529
493
439
430
457
443
438
423
412
461
535
543
511
498
519
547
524
474
466
463
454
431
464
508
521
456
393
398
420
488
527
568
562
530
498
520
548
551
568
589
618
670
692
709
727
740
754
750
730
590
443
334
246
238
272
277
288
314
350
379
420
432
442
491
554
550
488
490
506
515
502
507
501
498
506
512
519
516
526
543
531
486
432
429
464
490
478
445
471
511
533
554
562
539
518
474
493
527
561
601
578
530
517
515
502
513
570
563
482
420
442
499
562
593
583
568
570
603
625
601
552
498
460
504
562
589
607
635
663
692
679
612
586
597
640
621
575
577
613
600
591
574
573
600
579
528
483
512
517
532
549
561
543
486
415
381
380
405
394
404
453
470
439
413
400
413
448
489
496
517
545
489
379
334
393
475
495
460
428
428
411
381
386
433
437
418
384
375
425
480
505
499
504
500
502
518
524
493
475
469
489
493
476
471
458
436
449
504
555
542
487
466
429
438
481
507
516
535
514
469
410
446
496
501
486
459
435
412
413
447
481
501
543
541
509
474
473
491
492
473
465
464
459
430
435
488
597
665
571
431
414
432
432
444
458
495
502
470
471
478
482
512
550
550
525
515
519
487
472
461
476
503
525
533
505
479
479
461
416
411
437
469
484
493
482
478
476
439
415
417
413
374
348
382
424
463
487
446
426
449
483
528
572
607
647
667
659
644
635
622
596
573
554
497
372
214
156
183
209
237
324
383
395
412
407
345
357
450
473
441
453
510
537
535
522
501
472
452
468
520
544
561
588
586
557
496
472
479
480
481
482
489
509
519
550
584
505
426
379
434
486
448
454
528
599
578
537
513
498
492
524
532
555
596
616
627
611
603
589
524
508
542
596
598
583
564
573
578
582
619
628
600
589
582
598
631
666
646
543
481
480
556
636
630
605
588
570
555
549
544
546
572
584
545
489
500
499
457
448
454
496
534
561
447
335
343
428
476
475
450
401
397
426
456
481
503
506
508
500
482
413
391
422
498
559
562
518
476
514
566
561
528
495
481
462
454
439
429
461
504
551
574
599
618
595
500
449
458
479
475
444
453
515
531
530
509
470
467
491
510
542
550
539
519
484
419
427
482
505
498
499
491
500
532
556
560
578
584
557
503
474
418
375
386
465
529
531
545
559
521
441
450
517
542
512
453
489
498
463
441
471
542
559
558
541
535
544
533
499
469
493
489
476
466
485
479
430
424
465
485
499
540
556
556
564
525
505
527
546
524
507
528
539
535
548
580
512
417
401
437
465
483
501
487
450
432
472
482
484
498
521
504
526
559
541
532
558
586
555
496
490
504
526
524
466
414
388
416
470
533
515
469
479
541
592
560
530
518
538
582
646
661
708
679
631
616
600
550
507
499
475
436
376
342
349
346
315
322
354
354
393
459
512
534
544
549
557
560
564
569
549
511
462
437
481
518
561
613
582
535
517
515
539
536
485
467
464
510
549
556
557
519
474
504
565
578
531
520
552
547
488
424
428
431
487
554
586
605
601
553
520
518
545
572
548
508
543
583
594
613
599
576
568
576
571
573
551
535
567
623
627
579
538
539
514
498
503
554
605
656
682
632
563
551
568
560
577
583
562
522
509
484
493
512
516
516
560
573
534
494
472
434
408
416
477
547
554
514
476
476
480
481
487
464
469
493
493
494
489
473
472
484
464
458
476
494
521
511
521
534
522
471
453
438
418
419
418
376
406
475
520
546
577
557
509
501
519
525
549
537
466
459
491
509
501
503
537
565
565
536
503
494
488
463
459
447
440
455
472
494
534
588
619
602
611
569
496
503
519
533
557
575
551
517
506
503
510
520
535
524
563
584
529
491
502
539
595
638
628
592
570
571
538
531
551
612
637
624
592
584
589
589
557
558
577
550
487
464
491
537
574
567
546
521
485
496
575
631
653
654
648
597
592
603
600
592
582
568
565
540
513
515
522
566
612
618
597
570
593
576
579
546
493
450
439
483
524
553
568
598
633
657
622
542
504
513
552
580
527
466
460
516
593
611
595
588
575
543
538
560
548
526
482
493
554
582
561
562
540
549
565
588
598
560
528
487
432
432
484
559
550
515
536
577
570
561
554
560
563
545
498
476
496
497
461
444
492
540
548
548
551
526
518
519
489
429
433
493
522
515
467
450
464
490
492
448
445
459
458
461
475
495
469
465
418
434
500
495
465
483
503
518
534
544
541
531
564
583
561
535
480
464
478
479
502
527
508
492
467
465
487
521
578
643
658
566
477
494
521
494
461
497
567
602
641
661
644
669
704
693
661
626
599
612
610
574
496
387
331
335
317
315
317
322
332
375
442
479
472
442
445
528
568
544
568
617
612
586
602
620
568
523
528
542
556
548
540
508
499
530
554
589
604
580
561
543
521
521
570
596
606
612
624
549
500
557
633
653
592
546
558
555
571
578
601
618
613
590
596
615
628
657
650
612
575
543
512
480
525
545
534
550
589
624
661
655
634
627
623
657
667
627
573
550
588
632
669
661
638
636
639
636
600
576
543
535
517
502
542
517
470
495
504
460
424
428
455
455
475
494
453
455
481
472
450
450
442
429
444
479
499
486
480
493
461
423
400
376
342
346
401
461
511
544
521
462
467
486
490
456
404
357
383
413
437
467
551
606
606
551
489
483
500
549
590
585
530
476
440
406
384
414
472
498
512
466
426
472
524
495
463
433
421
437
478
513
561
574
595
579
510
484
534
563
535
485
502
526
528
530
481
453
453
487
498
455
426
413
427
429
446
491
551
556
555
536
504
484
515
573
584
583
571
511
487
510
525
528
509
510
514
486
425
377
398
456
502
488
443
458
509
535
528
494
442
403
388
434
467
480
533
549
543
539
540
523
514
506
464
432
449
484
504
450
392
406
498
540
494
466
447
420
402
448
533
567
543
537
541
498
447
416
413
450
476
475
466
446
467
502
523
501
455
415
414
441
458
478
503
499
484
475
494
541
563
570
604
598
552
504
486
500
543
532
474
465
473
494
537
545
513
469
480
523
472
433
484
563
601
572
546
502
482
517
534
530
539
560
567
547
542
557
531
458
487
504
510
519
531
512
490
495
513
539
587
599
592
617
643
665
681
727
728
690
664
643
625
596
507
427
399
400
417
409
409
412
427
457
450
427
465
524
524
463
456
517
590
631
629
581
515
474
474
521
562
570
566
559
538
506
486
497
526
518
549
574
613
627
584
549
538
542
574
558
491
478
486
499
511
537
563
555
505
484
501
494
525
553
544
521
526
511
507
522
507
499
509
500
570
655
687
693
656
605
554
489
492
516
540
577
608
610
591
597
614
571
524
490
486
521
585
645
626
567
518
508
491
532
549
519
483
482
500
481
462
473
481
452
424
409
414
416
423
399
371
381
366
382
396
388
377
367
373
378
376
405
429
442
454
452
429
412
426
432
433
464
475
478
452
385
383
429
482
505
491
474
474
472
461
438
419
417
414
427
452
475
475
469
456
405
386
417
469
507
528
515
508
513
533
557
547
514
523
507
482
466
448
429
414
440
476
479
455
436
474
509
460
423
506
601
582
515
467
480
489
469
465
474
487
467
492
530
542
545
552
523
478
471
492
477
426
444
485
516
546
544
544
550
504
453
448
459
460
458
475
536
560
528
491
479
493
461
429
423
451
500
505
493
516
532
545
548
554
551
539
537
550
530
512
523
504
501
499
494
501
541
561
548
525
468
462
456
456
473
474
497
495
460
439
422
486
526
526
572
572
586
603
597
583
569
581
552
511
522
483
433
438
499
544
502
449
443
459
480
461
437
474
518
538
532
521
491
460
471
471
491
493
519
531
516
512
495
484
509
527
556
551
522
502
496
514
519
532
564
580
588
595
653
716
754
778
757
688
616
560
518
423
323
253
242
266
279
298
293
340
424
457
473
521
557
528
506
530
521
471
422
425
482
559
573
539
513
518
530
537
523
483
466
487
534
559
577
573
576
574
541
487
465
456
456
488
514
514
514
569
622
568
494
486
489
536
571
560
564
565
554
559
552
569
585
587
561
535
537
537
551
545
508
520
549
553
587
629
646
654
669
639
594
584
589
621
652
643
655
662
664
678
690
673
647
604
579
537
489
464
452
445
479
504
512
498
463
438
467
483
461
450
443
464
456
422
393
382
393
384
382
404
377
336
342
388
419
421
469
506
483
438
427
428
448
447
431
459
460
469
472
481
476
456
435
422
429
437
435
434
436
415
371
372
414
463
477
495
536
541
547
566
583
555
483
445
465
463
435
453
482
477
455
454
476
490
480
481
515
540
519
481
423
418
448
474
477
493
547
574
542
483
433
420
435
434
478
515
533
547
510
502
551
570
530
488
455
462
476
484
513
556
539
450
437
477
424
397
438
497
505
477
467
504
541
530
490
479
490
501
506
534
549
551
534
514
496
486
491
512
536
539
517
489
499
501
417
419
423
439
496
545
534
536
545
523
490
486
508
558
575
543
560
570
522
478
433
454
482
490
513
527
505
485
483
484
473
429
430
455
449
460
497
518
496
457
444
454
477
516
537
536
522
504
488
479
464
450
436
434
425
408
449
539
675
733
699
700
697
710
777
790
762
740
678
591
486
380
279
219
167
145
186
226
259
309
353
376
417
484
482
450
404
417
454
443
461
497
503
510
537
593
638
667
623
529
459
464
498
501
512
531
504
472
482
483
486
487
482
498
502
475
469
484
507
474
462
463
496
544
564
557
532
549
555
556
567
590
563
520
497
512
547
565
562
567
550
516
528
569
599
619
633
651
659
627
546
505
539
600
633
613
603
619
652
645
640
623
618
618
588
583
621
653
656
636
560
529
520
521
500
473
430
454
452
391
371
372
387
371
375
352
360
371
365
380
396
412
419
415
420
427
436
435
443
431
431
463
443
391
381
425
460
481
492
486
454
413
363
348
368
398
418
396
454
481
459
471
494
499
500
514
489
466
455
462
481
506
516
508
508
511
536
528
485
450
442
451
473
487
486
463
453
436
430
422
423
477
543
589
580
542
465
456
467
483
480
497
518
509
490
499
517
512
484
452
458
468
473
491
490
488
488
478
502
499
457
453
479
480
488
521
543
568
571
518
514
533
523
491
483
504
538
559
536
503
454
404
425
498
557
548
504
511
531
535
539
538
533
538
529
512
517
539
558
567
558
532
473
458
450
467
458
476
503
505
485
461
469
494
466
443
450
462
432
419
431
473
508
557
588
593
567
500
449
450
461
465
469
505
526
510
526
564
584
606
637
690
770
867
916
904
864
828
780
636
459
302
244
219
200
201
224
279
317
361
407
467
510
550
521
488
503
505
552
580
571
516
481
498
505
496
506
533
550
544
565
572
549
533
517
487
484
486
493
558
608
592
599
591
569
519
467
482
529
560
579
601
624
619
633
618
584
562
532
517
529
562
629
641
588
573
605
595
551
538
546
544
558
626
673
689
686
686
686
679
682
672
644
618
643
692
724
739
709
698
717
679
642
634
639
635
653
664
639
633
572
512
474
469
499
510
468
448
427
438
447
450
456
442
418
397
389
401
399
387
363
358
374
396
419
450
460
458
420
397
391
402
405
414
441
437
450
463
442
436
494
528
491
448
431
447
479
504
489
497
514
472
419
416
442
466
460
441
476
531
538
487
428
409
433
438
475
518
542
560
555
533
501
508
559
572
543
502
474
452
467
502
547
544
521
490
471
476
455
448
434
435
496
537
535
535
512
483
488
509
513
529
521
504
517
549
574
533
509
544
563
536
548
519
481
468
473
481
534
582
557
529
508
497
497
490
503
537
555
548
569
599
643
661
617
549
491
453
454
499
516
488
462
446
430
411
425
489
547
545
510
484
494
514
513
494
493
506
533
557
550
504
508
498
461
450
447
463
481
525
555
545
533
493
450
443
462
513
581
603
637
706
765
841
919
922
874
858
819
755
628
471
345
232
174
180
212
242
276
279
299
384
435
448
470
519
533
510
490
482
510
496
501
559
593
554
522
501
479
443
445
493
521
539
563
560
570
565
525
482
505
518
520
536
488
465
449
485
565
604
610
605
591
556
529
524
516
531
543
542
532
541
554
552
551
545
543
563
575
591
587
574
569
572
591
616
643
669
695
715
740
712
663
618
625
682
703
704
700
681
662
646
645
677
723
713
657
599
550
496
474
479
490
479
468
474
453
456
449
408
407
409
414
433
427
416
409
380
326
313
302
320
389
462
496
458
409
407
438
465
502
509
450
389
373
385
413
407
404
398
376
362
383
433
465
465
445
408
407
446
488
492
465
461
530
563
530
485
467
487
522
514
505
520
530
538
516
431
382
430
464
476
462
477
543
581
538
477
474
508
527
527
544
503
447
451
487
523
546
561
552
514
456
435
468
523
537
502
479
482
528
589
623
590
531
500
504
528
554
514
480
521
578
585
591
583
548
539
534
537
513
496
514
537
510
456
442
456
496
541
560
513
467
446
460
489
463
465
481
516
575
588
556
523
470
422
435
464
511
487
459
459
472
466
456
479
494
487
499
506
496
491
524
542
582
614
633
669
772
876
899
885
892
896
823
740
663
569
466
354
216
135
132
156
190
267
336
373
392
435
479
510
521
539
526
483
480
505
509
509
509
524
538
544
553
546
549
575
531
493
466
500
519
509
446
440
525
591
571
507
496
532
536
541
564
574
551
529
547
575
585
588
563
533
542
545
555
567
546
535
523
524
536
574
628
668
660
625
595
574
549
570
618
647
664
654
657
683
700
700
672
609
618
680
719
735
739
709
670
652
630
618
609
578
567
555
537
522
524
529
530
515
474
429
401
415
419
398
403
419
417
384
350
379
408
427
470
492
472
430
382
351
360
369
386
383
392
435
464
456
460
451
454
464
456
435
448
499
545
530
500
473
436
417
425
462
508
532
502
476
492
497
488
503
510
491
470
453
445
415
415
470
533
547
564
535
507
528
556
547
551
568
560
544
509
476
493
525
518
486
470
504
509
512
533
508
506
521
531
565
572
572
565
591
598
588
548
504
485
511
544
527
502
530
572
596
540
469
451
431
414
413
475
538
532
480
447
447
488
519
494
489
532
555
583
577
550
501
475
457
465
484
507
516
500
501
503
518
519
489
502
515
502
472
458
502
569
600
631
692
759
813
841
861
861
841
840
802
707
554
442
330
259
220
215
254
296
333
351
355
380
414
457
485
488
490
508
537
563
554
532
507
471
450
445
449
449
447
488
559
578
543
519
520
505
521
557
589
581
577
577
545
541
508
486
495
530
551
572
609
599
549
513
493
488
498
527
558
589
577
550
523
522
536
585
620
613
624
615
594
595
606
610
627
617
625
642
673
693
703
698
656
611
607
646
668
673
685
724
737
728
728
674
607
568
550
543
533
496
453
458
494
521
541
529
490
434
406
400
390
360
331
386
437
409
398
406
419
438
446
441
443
422
377
381
436
467
460
441
431
447
479
492
444
399
446
507
520
492
439
397
404
442
473
441
450
481
498
474
476
491
503
500
493
491
472
444
485
525
548
539
538
532
504
481
487
512
510
503
515
522
522
514
492
473
489
508
507
478
474
503
538
579
575
526
530
545
512
497
499
504
495
505
535
570
566
545
524
512
494
478
469
498
562
564
516
501
510
501
482
475
494
513
510
506
518
512
530
547
509
469
411
387
411
441
464
495
521
523
500
472
462
456
420
389
435
529
544
538
535
510
501
514
517
511
499
505
515
521
557
571
599
672
748
793
830
843
841
854
815
729
602
449
335
249
189
166
208
288
354
389
410
418
448
466
453
458
512
508
445
451
488
530
540
503
461
450
453
468
466
484
524
541
554
529
508
513
502
495
504
497
487
508
508
488
464
477
536
608
626
577
495
471
465
477
496
493
520
550
593
590
584
606
614
583
550
531
531
543
537
557
563
558
562
571
617
654
643
634
630
599
597
614
608
635
665
672
655
641
662
689
663
667
705
721
676
608
580
549
515
480
449
429
457
476
457
405
362
376
399
399
385
379
388
405
441
444
408
381
410
464
464
412
397
426
435
434
416
420
437
418
410
401
398
410
409
416
436
436
400
378
433
460
449
424
376
352
391
450
517
533
537
526
488
453
433
435
470
497
510
492
485
458
440
466
509
530
522
506
469
473
489
498
486
464
446
446
449
473
510
515
527
527
486
448
464
501
514
508
483
473
465
469
434
445
530
580
555
529
487
485
515
530
525
505
494
492
524
540
522
514
522
523
517
487
475
490
508
531
520
482
412
371
388
472
540
543
532
454
420
458
487
492
490
496
512
509
501
494
501
487
484
508
502
503
518
498
497
538
562
522
463
432
468
541
552
529
517
540
587
652
762
866
932
945
901
834
777
720
610
474
360
270
196
167
222
320
358
396
436
454
488
474
465
443
465
515
506
452
452
475
466
460
483
506
523
522
493
501
539
550
566
577
558
529
494
476
497
519
544
566
557
569
562
476
444
484
500
484
517
560
539
513
495
500
513
549
553
546
547
558
556
548
542
547
588
608
600
590
620
617
617
607
616
615
615
600
567
574
628
643
604
570
601
653
669
651
643
636
627
629
644
659
666
644
575
548
567
575
560
529
526
505
465
417
407
368
328
340
375
389
392
384
387
423
411
399
402
420
438
454
457
439
419
443
464
429
395
383
404
412
438
416
396
440
471
425
401
426
465
487
497
495
491
436
395
417
441
448
456
479
524
549
553
548
528
513
487
463
491
515
539
503
472
466
429
469
519
525
510
520
539
537
523
503
496
516
518
507
484
469
482
493
497
511
535
543
525
524
534
548
541
526
518
502
495
471
481
488
487
492
546
569
558
537
515
510
541
561
517
473
494
532
551
595
602
584
543
521
528
504
499
514
500
505
547
558
522
504
492
505
508
494
463
421
457
508
529
538
528
514
522
525
489
478
488
528
548
516
468
470
513
534
554
561
530
527
570
556
477
441
468
504
532
538
543
533
548
588
619
662
723
783
843
881
894
877
812
717
620
516
422
330
266
192
169
234
293
334
396
432
443
455
475
491
513
516
513
520
491
471
488
493
486
498
511
522
533
530
478
446
477
514
532
539
551
538
535
528
520
505
512
510
529
540
543
529
524
523
514
505
509
516
503
494
525
502
481
478
468
511
561
605
633
637
598
544
554
572
539
504
486
525
613
685
704
708
719
726
700
649
626
632
648
641
606
637
660
640
626
650
635
582
565
585
621
641
597
521
504
537
520
514
497
458
413
446
460
391
375
391
402
432
433
421
444
440
397
376
386
408
431
436
418
416
394
391
427
472
496
489
492
457
444
435
443
442
438
407
383
440
448
445
407
402
427
483
497
487
491
489
482
483
481
490
494
481
488
512
518
499
481
504
539
591
574
475
403
384
401
432
449
470
507
506
479
489
499
504
487
489
519
542
554
550
531
491
467
457
453
479
509
515
482
475
497
516
508
510
495
474
434
443
438
482
512
499
513
550
553
517
486
499
496
475
483
504
525
523
531
527
536
551
529
501
477
499
496
502
541
529
477
489
515
568
605
591
584
561
500
467
467
526
566
534
519
510
492
481
496
500
480
443
399
421
488
531
540
540
524
494
500
521
539
563
585
569
537
501
462
455
481
498
507
517
529
481
442
450
467
485
501
500
484
459
479
531
558
556
587
626
691
768
819
855
872
906
904
850
732
591
472
368
272
217
195
186
212
258
264
286
366
420
424
411
441
469
508
527
550
573
521
447
440
472
483
512
539
555
560
519
480
480
473
469
483
454
439
439
443
445
461
480
480
451
452
485
524
559
598
578
547
564
590
567
542
555
548
508
480
470
481
480
509
527
552
549
535
540
560
578
591
571
561
578
597
611
645
670
657
617
617
665
695
648
617
603
621
659
643
612
643
642
636
633
598
556
529
537
567
586
556
529
534
504
472
444
448
453
440
410
352
326
359
405
381
374
393
405
404
388
390
395
428
445
422
409
416
417
424
401
372
376
413
461
488
442
408
412
412
382
407
458
471
429
404
418
422
425
469
468
462
481
503
523
505
440
436
441
449
466
490
487
470
481
493
464
441
467
445
424
472
493
496
503
486
486
476
460
459
425
407
482
526
532
534
516
490
493
499
463
446
466
487
484
468
447
437
474
530
544
553
561
567
558
509
477
447
408
409
453
453
452
496
509
520
558
546
508
481
492
508
516
516
527
531
528
505
494
526
552
572
573
562
558
539
508
463
440
422
390
404
482
507
490
540
581
533
478
452
448
457
455
469
502
502
488
492
484
515
557
561
527
504
512
490
476
455
443
459
508
518
502
526
539
533
523
556
624
667
726
784
840
868
888
889
847
751
626
506
418
370
268
201
228
292
335
353
370
377
376
372
410
445
468
493
523
519
488
465
474
470
479
500
491
497
517
557
593
600
557
527
538
541
509
501
540
528
468
423
438
478
503
530
560
571
575
572
532
508
489
474
469
474
517
559
561
554
557
574
581
558
534
536
534
524
529
566
593
621
628
622
613
604
591
580
604
662
675
665
674
672
675
682
645
642
660
683
678
641
579
555
552
565
564
556
555
571
585
565
530
507
509
514
480
424
418
432
447
435
375
338
384
429
426
421
411
427
437
406
382
406
426
419
381
371
359
351
356
380
390
394
426
445
460
461
478
507
486
454
426
435
457
504
522
516
484
468
453
434
430
456
479
486
486
460
412
418
480
530
521
524
527
479
441
435
443
468
499
508
487
525
540
529
506
496
509
525
524
521
507
491
480
460
474
463
456
498
524
511
489
463
439
411
429
509
535
514
471
477
506
528
538
580
568
518
506
525
556
517
476
475
473
475
505
533
527
520
547
534
483
444
445
464
472
488
464
459
479
553
570
516
468
472
528
543
530
528
548
540
534
548
538
514
492
489
508
508
513
530
533
524
514
514
535
574
602
592
565
551
548
508
461
426
410
425
464
494
506
515
603
629
554
488
484
501
487
492
524
508
473
487
504
506
493
476
491
506
508
492
470
465
476
482
475
482
496
465
458
479
516
536
561
576
601
659
721
796
848
861
874
831
789
779
728
636
533
396
291
230
204
207
239
284
346
402
395
375
388
412
418
438
485
491
497
512
507
506
493
506
525
497
458
429
433
475
542
564
574
563
540
509
513
499
470
475
483
498
546
571
558
535
490
466
466
489
510
515
528
564
577
574
540
549
565
562
529
528
546
550
553
566
570
594
586
569
590
575
569
539
552
585
606
595
600
625
676
715
747
724
686
618
593
628
642
632
620
626
644
670
658
601
572
561
538
546
563
552
515
473
453
454
437
432
433
394
349
315
348
422
471
463
442
429
371
366
413
430
427
434
477
463
430
432
449
455
449
413
377
401
405
402
387
370
389
431
439
457
511
500
444
410
398
437
490
526
523
510
504
502
471
442
461
491
486
462
455
479
484
493
517
519
535
545
513
475
448
445
449
471
489
489
484
505
537
552
495
485
516
520
481
462
476
492
498
496
478
481
488
514
525
509
481
481
484
496
503
503
498
510
539
532
517
522
493
492
550
590
569
520
471
469
476
459
472
480
524
555
524
476
473
498
533
541
515
490
496
517
580
640
609
583
564
534
498
478
495
534
545
484
431
442
516
569
550
510
496
500
532
510
479
508
498
442
439
457
476
477
483
526
521
516
539
561
570
569
546
523
514
541
552
516
505
575
685
755
808
855
863
874
871
829
773
694
644
593
509
401
293
184
150
182
233
306
360
408
457
493
512
510
492
466
468
508
549
585
578
502
456
512
583
597
584
574
567
513
469
471
483
498
509
544
585
569
509
466
450
502
565
588
567
562
566
555
524
484
501
550
547
512
539
593
625
650
646
627
602
610
602
551
535
548
558
548
573
601
601
587
601
588
568
595
642
674
689
668
647
643
633
636
663
694
718
693
654
639
616
600
569
563
567
570
572
595
615
582
546
512
498
496
463
434
449
435
413
417
434
417
404
423
415
407
398
391
390
373
354
353
363
379
419
459
463
437
394
378
370
401
425
443
427
419
441
456
449
433
439
448
465
476
480
470
459
448
448
472
503
515
477
471
488
496
457
407
384
418
453
470
476
443
386
396
464
485
470
446
440
468
517
544
526
504
493
513
533
538
537
523
517
517
522
519
521
510
543
556
495
418
390
400
446
481
482
494
488
459
428
456
503
539
546
527
496
475
451
475
509
539
571
573
544
528
505
481
490
535
581
592
595
596
589
571
536
458
405
419
452
490
510
530
550
546
544
512
495
494
483
469
510
530
516
508
506
523
553
530
489
489
503
504
486
485
494
532
541
528
488
450
431
443
489
553
553
502
479
501
548
560
561
550
519
457
444
474
479
506
541
589
648
699
747
799
854
894
884
825
785
746
657
529
407
290
196
173
252
299
285
279
306
366
426
464
498
520
517
491
493
460
437
453
464
509
561
578
563
573
559
513
490
523
574
577
528
482
454
478
533
549
523
508
525
515
435
342
344
445
558
602
585
560
536
558
590
580
535
533
598
628
602
551
509
477
468
486
515
537
557
581
597
604
620
646
656
662
635
628
662
698
715
679
617
602
626
654
659
646
658
693
749
806
756
636
570
554
564
585
604
584
573
565
560
565
582
584
572
533
504
441
405
443
502
530
529
507
433
388
409
422
406
415
471
492
442
406
426
454
505
547
534
495
442
400
419
467
489
481
470
458
465
494
516
516
494
490
489
495
510
526
501
491
471
458
423
423
476
481
488
531
566
523
477
460
443
468
525
549
561
604
608
593
573
563
514
495
513
528
548
587
599
615
595
523
452
413
399
430
489
499
522
544
537
516
502
495
483
507
551
582
561
545
537
505
482
471
454
459
512
588
605
588
574
534
473
424
449
527
530
499
509
566
579
556
556
584
605
613
582
478
404
463
513
528
552
526
494
496
513
532
548
550
537
564
566
500
493
532
557
569
560
507
439
434
456
463
469
512
554
568
561
570
575
578
617
678
741
788
824
855
895
916
870
764
630
511
402
325
269
241
222
243
279
348
389
408
450
484
506
505
494
490
511
530
543
535
506
494
479
468
493
512
548
556
526
516
521
511
536
568
573
533
484
512
543
543
570
577
563
522
476
428
402
400
459
542
561
545
509
498
503
555
585
603
567
513
496
537
579
598
601
579
570
579
568
568
571
559
591
650
665
674
689
711
659
613
613
621
632
620
612
606
627
612
582
584
622
663
651
625
592
576
572
529
489
466
435
414
438
451
438
421
403
399
368
320
285
317
336
330
317
309
319
350
372
393
416
428
420
339
326
350
378
380
365
375
393
383
374
360
359
366
368
374
399
402
400
385
378
387
383
391
412
397
388
390
421
490
541
535
498
442
402
405
374
358
384
408
426
450
448
420
435
441
451
467
462
441
441
434
409
390
396
420
466
469
386
320
335
382
442
494
505
480
443
403
435
489
489
464
453
424
394
361
350
394
455
489
528
519
452
377
351
381
443
483
474
454
453
459
452
446
440
424
408
432
457
459
461
463
470
470
475
462
450
440
445
450
451
449
444
438
447
435
431
452
463
467
441
394
338
359
409
419
420
427
428
431
438
465
513
557
559
558
602
632
641
666
711
749
745
692
625
506
350
203
137
152
182
266
310
311
322
338
382
424
448
468
479
485
498
487
463
440
448
458
466
498
510
491
466
471
514
557
594
608
556
463
434
444
486
528
570
564
563
553
529
514
496
475
511
560
574
573
558
564
555
531
515
515
546
513
480
492
516
578
645
669
657
633
598
578
589
613
615
599
605
592
581
607
625
611
620
640
636
627
614
614
615
613
607
622
676
700
661
641
655
634
609
577
531
512
510
503
491
469
484
486
453
406
370
339
342
383
408
446
454
446
438
391
343
309
286
313
366
430
451
425
422
438
477
501
491
450
430
422
380
324
298
351
417
479
494
482
462
462
470
468
450
422
405
413
455
456
428
419
442
476
506
522
505
433
456
487
502
501
510
507
514
509
498
478
489
518
535
522
508
487
455
422
438
499
547
556
564
546
534
528
496
495
534
508
455
465
482
481
508
554
552
530
524
497
513
527
507
507
514
503
509
515
510
478
470
467
483
526
555
552
559
547
540
510
496
494
471
457
439
414
402
446
504
532
522
512
501
486
466
496
499
490
461
444
409
458
540
566
551
534
514
471
434
465
533
557
555
556
568
609
670
711
696
705
747
771
775
802
815
804
744
636
484
342
270
225
224
270
330
357
380
417
421
390
408
486
561
580
556
531
501
473
460
470
471
467
474
503
511
511
550
599
642
615
573
539
508
518
528
530
517
512
503
509
504
501
519
533
534
563
598
609
552
491
479
521
556
573
584
552
491
471
515
570
582
577
574
591
591
619
630
618
595
591
581
572
570
612
646
603
573
609
655
684
694
631
586
600
635
640
624
620
619
614
603
579
583
596
575
549
548
525
483
468
490
521
521
492
476
470
448
424
426
461
484
459
446
370
290
310
368
401
423
443
428
423
420
443
474
475
441
381
380
432
483
500
473
462
499
538
533
513
488
461
441
430
439
429
412
411
424
445
495
559
567
531
497
497
492
477
492
492
511
565
576
587
599
587
567
527
490
465
473
512
516
504
484
519
565
577
572
571
527
470
452
465
449
424
450
489
506
526
558
586
589
548
542
596
622
612
579
562
567
556
506
478
480
514
536
520
518
527
555
570
513
436
422
471
501
486
480
468
447
432
420
471
516
540
566
562
534
527
556
537
491
488
507
526
528
510
538
565
536
496
463
438
424
408
429
487
510
522
533
546
586
637
699
776
886
944
946
917
847
761
702
613
474
340
262
244
238
246
292
314
310
326
369
426
476
503
524
531
514
491
479
494
511
525
540
548
552
545
566
589
554
526
537
540
537
524
494
504
527
591
576
527
496
507
527
529
515
490
494
528
553
567
568
580
574
561
529
537
566
554
541
550
588
590
548
536
574
615
613
608
610
597
609
630
667
661
610
586
571
543
509
534
623
691
725
725
699
684
690
662
655
688
718
715
681
632
580
555
567
566
538
535
531
495
445
441
451
478
495
459
382
355
372
395
392
394
400
417
421
396
396
451
517
545
493
428
419
426
422
419
434
439
446
426
404
407
420
446
504
529
504
475
438
405
409
450
479
497
507
501
503
478
486
481
478
495
493
452
441
454
460
504
547
549
521
501
503
510
486
468
478
471
463
469
478
477
474
494
513
501
483
474
496
494
511
509
546
552
512
454
440
486
540
553
552
583
580
562
548
518
485
488
512
545
562
558
544
518
491
475
487
513
530
517
466
425
445
494
482
448
477
516
538
526
499
498
496
509
515
526
515
495
506
518
511
516
508
481
497
554
558
516
470
443
429
421
419
449
493
525
588
620
610
672
787
865
849
810
799
778
741
684
615
507
401
318
277
269
264
268
286
315
345
354
357
393
424
440
451
488
512
520
491
486
482
480
488
489
485
519
547
528
512
529
553
564
526
517
490
450
449
472
498
529
529
523
515
478
463
440
471
547
619
636
608
574
528
541
525
495
512
516
556
614
644
623
596
600
624
649
656
640
604
593
617
628
613
595
585
602
610
613
610
637
620
611
664
685
673
676
675
664
692
724
715
697
699
684
652
592
525
496
495
496
512
505
492
493
485
439
390
367
415
431
376
334
334
362
375
409
422
426
444
435
432
450
461
489
511
500
494
500
487
482
496
535
561
551
487
435
400
392
470
553
535
461
463
506
505
477
459
423
377
360
362
359
404
473
493
487
466
406
394
361
353
372
382
402
436
485
511
508
500
448
407
425
471
497
440
415
405
429
510
565
563
511
449
420
419
432
473
473
473
478
492
511
510
491
467
468
474
478
438
377
364
395
447
492
483
443
457
474
452
385
324
300
321
334
347
344
358
372
344
286
274
290
301
303
298
271
283
310
333
320
293
281
307
324
287
267
255
210
163
145
189
256
302
326
343
418
532
588
571
611
678
690
735
751
721
689
606
473
360
271
220
179
176
201
255
291
322
379
450
490
495
508
512
494
466
459
477
533
581
518
465
443
480
563
580
532
487
486
526
550
532
532
539
529
486
451
483
531
551
560
573
590
585
574
527
479
448
437
472
563
620
594
577
584
588
551
517
530
532
545
533
532
589
635
617
593
605
640
672
701
724
716
707
725
750
734
719
741
760
757
775
785
762
750
791
847
796
748
723
712
719
743
761
750
724
708
682
655
634
616
616
619
591
527
492
505
559
612
564
499
464
492
525
518
517
530
548
542
515
450
399
373
447
526
553
556
556
570
548
517
499
528
517
489
458
499
572
622
615
547
484
442
428
394
361
364
368
411
456
487
495
508
494
458
410
380
398
418
415
388
392
408
429
471
472
421
374
339
320
299
350
401
377
326
336
369
373
353
345
354
364
352
315
294
297
354
431
420
387
361
357
355
354
350
335
332
316
341
343
278
251
266
294
342
392
401
377
342
335
310
288
274
286
342
383
360
359
399
438
471
454
404
349
330
333
397
467
512
548
563
549
496
446
453
469
465
487
509
535
547
583
640
698
739
753
765
808
881
961
986
956
901
793
648
541
466
384
344
337
359
417
452
498
584
634
630
637
642
650
668
678
672
639
603
583
600
643
658
653
637
622
638
648
616
608
592
574
578
606
646
666
647
610
587
608
591
552
543
536
507
479
489
545
566
615
624
589
543
557
558
546
553
551
559
552
550
556
602
661
651
602
564
559
531
521
570
631
635
601
556
578
637
668
663
659
674
640
603
604
608
632
669
703
718
697
674
668
693
694
660
647
656
666
627
613
621
589
558
518
486
477
466
474
489
482
492
525
533
491
438
415
459
511
566
595
568
512
488
444
440
499
499
500
535
575
591
598
584
588
594
547
518
563
589
565
524
497
495
554
590
585
600
616
644
630
580
548
585
603
580
552
529
535
575
604
594
561
551
565
539
519
486
490
528
549
557
575
591
562
566
605
631
648
624
596
600
604
562
569
603
640
614
560
534
536
552
567
570
585
596
618
613
606
579
530
504
532
546
531
517
539
533
497
508
521
525
539
537
548
559
527
513
550
591
580
537
505
515
541
543
544
574
596
600
570
560
561
534
543
552
535
486
398
348
418
556
644
679
720
791
870
879
832
816
804
745
690
635
567
479
387
309
264
243
246
275
328
375
372
384
409
438
474
510
539
559
540
527
543
531
499
498
482
492
554
639
711
721
652
569
543
582
582
550
519
525
565
603
609
615
621
602
595
614
639
624
540
489
494
450
398
449
517
540
580
596
605
623
657
670
658
622
608
584
567
580
614
659
674
642
605
609
623
634
656
673
667
662
649
658
671
635
586
575
586
630
645
633
616
599
566
570
599
602
594
556
509
470
472
497
523
537
512
503
529
533
502
503
534
505
409
354
382
432
409
339
308
317
320
296
369
440
468
442
394
371
370
397
410
390
393
433
484
500
500
501
502
482
448
418
402
398
436
452
466
466
471
483
494
490
483
465
434
431
383
385
411
390
377
426
511
567
561
554
527
477
476
478
491
513
526
532
513
499
502
516
513
506
491
479
476
466
429
418
447
466
477
502
558
582
574
551
533
546
523
478
449
463
500
519
481
419
390
416
437
452
482
508
501
499
526
506
491
487
467
466
482
494
467
433
410
417
469
530
544
529
515
505
486
472
481
475
461
459
471
465
456
477
515
571
587
625
695
775
837
870
849
779
673
562
456
352
271
172
91
49
50
122
224
280
310
338
378
397
345
307
319
368
395
384
393
392
409
429
427
399
376
394
459
494
467
426
429
464
484
519
554
542
514
493
444
411
392
404
460
504
528
563
593
590
554
520
504
480
484
503
542
567
556
529
501
482
504
556
592
595
579
561
523
474
499
579
642
657
640
592
560
556
567
576
601
605
581
562
557
582
599
615
617
597
590
577
534
539
545
518
486
480
496
518
494
465
489
501
486
469
452
437
432
436
400
397
417
388
353
404
460
468
472
452
453
442
393
371
396
437
460
461
425
421
425
441
482
488
469
483
488
486
523
555
542
514
491
477
463
464
472
517
541
548
548
518
496
491
506
504
508
499
481
481
485
475
464
444
464
504
505
479
500
524
541
536
563
565
541
507
525
545
544
530
525
519
497
473
455
449
466
540
586
594
572
555
545
551
595
620
618
546
487
466
449
497
570
613
594
548
559
559
529
507
496
504
538
574
581
519
447
445
493
559
567
544
527
539
580
605
572
558
585
574
575
589
588
586
548
527
522
546
588
593
599
610
690
784
859
889
895
901
915
881
814
702
553
422
334
287
278
303
326
341
365
441
497
490
448
398
398
423
474
541
552
519
507
542
567
570
556
547
571
563
521
498
473
462
485
505
507
523
520
468
432
451
518
600
586
547
532
510
494
473
481
513
584
633
659
671
673
656
647
671
720
744
741
712
643
577
577
605
580
537
539
566
607
627
659
646
611
590
591
594
601
590
550
569
593
590
614
627
600
568
530
525
535
518
490
440
430
440
458
442
415
375
359
393
385
335
304
334
367
353
322
301
264
261
274
265
255
257
255
212
115
61
33
50
75
46
26
50
102
115
118
88
108
160
208
201
202
241
269
257
241
255
265
245
212
214
205
220
240
295
313
282
235
231
252
272
295
282
216
259
361
428
439
439
435
452
490
485
397
317
284
281
329
382
471
551
578
571
559
583
602
621
647
670
630
565
517
495
494
478
475
518
580
616
604
599
523
448
474
545
617
660
668
646
630
617
610
627
626
618
642
651
612
577
586
608
619
638
662
646
636
610
558
578
597
609
616
629
652
672
663
671
697
715
687
600
552
528
527
633
762
849
916
965
958
939
942
932
921
909
850
701
523
394
311
299
281
310
407
481
535
596
613
603
553
500
524
585
621
628
628
621
626
646
648
655
653
653
634
586
559
597
670
692
659
643
682
675
620
626
655
675
684
700
686
669
691
730
702
655
633
630
656
683
675
651
656
692
729
758
769
767
786
823
861
842
833
888
916
904
888
885
861
872
888
871
824
771
769
780
781
791
831
862
860
836
811
763
754
731
675
671
722
730
737
745
750
771
781
729
646
610
573
563
523
473
468
484
462
455
459
445
418
420
432
407
389
415
457
479
478
479
445
400
402
388
358
366
413
439
432
438
421
389
356
359
406
449
475
445
420
407
383
408
442
464
461
470
482
495
500
491
470
448
448
461
454
452
433
442
468
497
526
538
527
490
459
459
472
477
455
409
409
420
429
432
429
451
487
498
477
443
401
401
440
502
552
547
543
552
521
491
498
537
550
571
546
530
549
557
507
482
514
507
499
475
459
492
532
540
548
534
529
558
526
506
523
551
470
419
444
494
524
547
576
622
671
631
572
530
510
476
473
494
524
556
573
620
696
738
754
824
865
863
861
831
759
646
513
379
288
261
210
149
148
209
279
324
372
427
474
496
492
493
538
534
491
464
482
505
509
526
528
521
498
489
479
499
546
575
583
531
471
421
417
478
524
503
503
535
533
496
459
464
484
488
492
528
556
519
484
472
503
515
533
572
593
605
536
468
448
439
460
510
541
565
563
584
589
564
547
548
564
579
588
611
613
580
578
554
525
526
569
567
546
541
557
587
608
586
592
601
652
633
551
481
425
420
431
444
452
462
452
428
407
358
336
323
318
340
362
327
278
258
280
346
385
399
390
374
353
325
315
314
321
385
446
428
357
322
350
379
373
378
384
404
405
395
380
362
376
412
393
382
424
409
362
345
375
420
461
473
474
463
436
417
406
396
382
347
341
387
448
442
456
501
521
495
440
413
421
462
462
454
453
460
474
478
496
505
510
516
512
522
545
526
483
453
467
466
422
404
390
385
407
438
440
445
452
455
452
436
435
441
483
478
415
362
351
387
460
496
511
516
498
491
509
518
487
414
383
424
476
495
498
496
468
447
446
474
526
567
608
613
616
655
749
822
838
813
748
640
538
429
320
230
129
68
59
162
290
408
481
471
423
389
397
428
438
431
415
391
397
418
448
472
504
502
482
476
471
470
492
525
505
471
442
434
449
425
415
431
480
496
504
485
472
480
508
512
534
503
486
505
517
514
533
558
569
564
548
523
502
482
490
514
531
541
555
551
541
510
504
532
537
526
552
602
626
625
627
626
600
583
563
571
603
614
616
601
588
593
600
619
608
585
578
613
656
643
571
514
498
497
479
447
437
386
363
365
379
409
398
384
367
336
307
267
254
305
344
381
418
410
407
422
447
448
380
336
372
399
422
395
363
395
423
419
376
310
342
349
353
372
397
428
446
471
486
444
436
464
474
442
412
423
425
416
423
460
478
511
536
517
439
372
405
453
455
419
434
476
527
566
564
524
472
431
456
476
496
501
473
448
452
472
486
477
465
454
463
464
444
431
451
494
546
543
491
451
426
427
454
478
494
477
427
423
443
419
396
414
443
453
493
523
515
496
477
465
439
424
427
447
477
476
475
489
488
435
379
412
482
538
559
565
596
629
659
714
777
830
852
830
736
675
617
522
420
300
195
147
155
172
198
248
301
323
357
406
454
467
481
486
472
481
503
515
481
440
424
440
447
453
468
472
446
439
468
487
508
515
503
487
491
478
449
449
448
438
466
518
558
551
507
499
453
423
453
483
530
549
533
504
485
503
530
554
554
533
525
537
559
586
597
593
582
572
563
561
556
589
633
638
619
646
659
673
646
614
591
597
609
614
621
606
592
592
608
623
646
636
597
550
543
553
518
474
441
419
417
436
440
420
415
407
431
450
380
331
344
365
373
397
421
418
418
437
465
471
464
462
443
443
481
492
459
422
416
442
446
464
466
422
396
413
443
467
443
413
423
413
412
445
446
405
362
389
420
430
465
501
520
505
474
440
417
440
471
477
463
429
419
454
455
413
379
395
420
440
455
479
475
428
381
363
406
436
398
378
431
462
485
484
465
470
442
409
396
408
459
488
483
463
435
400
388
386
383
411
446
410
379
402
430
442
447
447
439
448
422
370
407
473
490
508
515
527
515
497
468
487
542
537
507
493
504
551
607
645
698
802
873
919
955
971
951
862
746
634
488
348
252
215
232
281
315
332
380
466
511
514
506
484
458
447
437
464
498
526
544
543
535
527
538
515
521
572
586
576
591
607
592
569
576
578
548
545
539
556
553
538
538
515
494
513
566
572
542
488
451
484
514
559
618
645
627
627
613
568
563
598
635
625
548
525
559
601
618
593
617
646
666
671
635
634
649
619
566
552
574
611
661
695
700
706
705
680
657
663
645
628
625
618
618
638
649
623
564
526
502
484
490
490
457
428
391
390
405
421
418
400
391
417
428
423
423
425
446
419
376
409
461
472
447
444
442
446
447
436
438
469
500
514
486
450
435
441
446
443
463
490
516
536
537
487
464
457
468
495
521
571
569
534
508
486
468
457
454
450
467
471
487
495
478
459
489
537
536
533
537
560
561
527
513
531
526
491
491
508
513
526
568
609
631
619
600
615
559
498
477
491
524
523
524
551
542
524
539
543
519
505
514
514
519
540
551
566
550
523
504
478
490
510
516
556
572
582
577
550
513
497
510
518
556
567
564
536
507
505
519
571
622
653
676
692
739
783
802
839
893
935
939
901
812
666
510
380
248
196
169
159
211
277
341
406
452
489
529
557
567
557
549
581
585
559
548
516
486
495
530
530
508
530
551
574
563
540
549
561
555
579
574
547
552
533
524
566
595
580
568
553
536
554
581
595
620
620
561
514
492
493
518
549
591
624
658
669
669
653
644
623
583
554
566
613
618
618
661
706
720
691
661
650
623
619
670
696
677
706
740
721
668
638
663
677
681
658
645
647
632
587
542
535
525
508
488
490
514
531
523
519
492
465
453
438
397
376
385
407
410
441
446
437
435
417
374
348
370
397
427
448
442
457
489
493
469
422
418
447
471
469
489
518
487
473
493
500
462
433
433
442
447
477
491
490
513
540
512
495
485
496
517
504
466
468
475
486
480
487
521
566
581
535
467
449
468
515
538
526
490
463
445
485
544
576
576
529
500
542
549
525
504
488
506
531
538
534
542
563
572
545
503
487
493
509
494
471
477
490
480
476
451
439
450
466
488
533
540
515
487
494
514
519
513
529
521
490
471
459
475
504
515
513
497
495
535
562
557
513
475
483
513
525
534
558
619
720
782
825
850
858
846
827
838
802
689
547
402
306
240
201
205
259
303
369
424
422
406
423
476
481
464
450
448
481
516
534
534
530
532
503
503
526
518
529
543
531
502
468
490
547
574
533
493
506
546
557
572
593
606
602
591
580
576
550
511
496
520
533
540
560
596
593
534
477
464
471
504
532
523
554
582
623
660
637
621
608
621
640
658
672
659
642
619
627
652
658
666
671
695
725
729
708
673
636
601
571
576
587
594
597
586
583
569
531
459
400
386
423
476
519
506
458
444
468
496
488
456
444
439
433
381
368
375
408
403
351
354
387
418
446
453
455
457
432
379
376
441
468
438
405
399
399
434
475
472
493
526
525
501
464
440
426
425
442
469
489
523
565
571
492
405
412
467
488
491
506
507
481
438
423
409
449
510
533
506
496
501
511
534
522
510
522
525
521
519
494
461
426
436
492
533
574
604
578
551
552
521
475
450
442
455
462
491
521
513
490
439
439
472
494
496
479
481
524
568
570
543
513
491
479
481
465
424
430
512
533
509
498
504
490
464
451
470
492
467
447
479
495
508
524
520
489
480
508
528
507
514
563
586
533
527
631
740
826
886
926
900
843
795
698
564
422
302
226
199
197
244
312
340
369
395
432
454
466
460
443
438
471
514
546
570
563
496
455
444
451
477
514
532
535
519
476
449
478
518
551
571
567
570
585
566
526
486
480
524
552
557
547
568
609
592
561
560
562
565
547
537
532
530
538
554
583
597
600
582
531
485
500
546
552
560
585
629
647
667
678
660
648
617
592
623
685
722
702
665
657
641
651
692
694
663
690
714
678
608
553
517
497
482
457
456
482
494
482
446
428
441
441
437
451
448
436
443
445
425
417
411
399
409
426
463
447
442
479
472
433
403
426
445
425
409
407
429
455
456
444
449
460
452
434
422
416
463
484
497
491
480
480
498
539
571
546
495
473
473
492
470
456
483
517
532
508
510
514
497
509
526
529
529
484
457
469
499
538
549
550
503
457
478
499
514
513
536
567
561
543
541
543
560
556
531
512
509
495
510
548
578
624
618
588
557
510
496
525
550
541
531
531
548
530
496
510
537
542
524
494
470
471
497
496
506
523
544
551
578
603
596
574
539
488
472
521
578
591
566
551
573
578
569
548
520
490
499
535
583
650
694
744
813
865
894
925
946
944
904
785
623
460
342
292
264
269
304
339
362
360
397
430
462
471
489
541
