1023
0
0
0
1
1
1
0
0
0
0
1
0
1
0
0
0
1
1
1
1
0
0
0
1
0
1
0
1
1
0
1
1
1
1
0
0
0
0
0
0
1
0
0
0
1
0
1
1
0
0
1
1
1
1
1
1
1
1
1
1
1
1
1
1
0
0
1
0
1
1
0
0
1
1
1
0
1
1
1
1
1
0
1
1
1
1
1
0
1
0
1
0
1
0
0
1
1
1
1
1
0
0
1
1
0
1
1
1
1
1
0
0
1
0
1
1
1
9
478
449
259
153
91
55
33
20
13
115
752
1020
664
387
229
138
84
51
32
247
847
1023
890
518
306
183
111
68
42
344
903
1023
1023
610
360
215
130
79
49
415
945
1023
1023
690
407
242
147
89
55
477
981
1023
1023
768
453
270
163
99
61
526
1009
1023
1023
836
493
293
176
107
66
564
1023
1023
1023
902
531
316
190
115
72
604
1023
1023
1023
974
572
340
204
124
84
645
1023
1023
1023
1023
620
369
221
134
101
683
1023
1023
1023
1023
665
395
237
144
122
717
1023
1023
1023
1023
707
420
251
152
145
748
1023
1023
1023
1023
745
442
265
160
167
773
1023
1023
1023
1023
783
464
278
168
192
798
1023
1023
1023
1023
817
484
290
175
212
816
1023
1023
1023
1023
839
497
297
179
230
830
1023
1023
1023
1023
856
507
303
183
243
841
1023
1023
1023
1023
867
514
307
185
255
849
1023
1023
1023
1023
872
517
309
186
261
854
1023
1023
1023
1023
874
518
309
187
271
861
1023
1023
1023
1023
880
521
312
188
281
868
1023
1023
1023
1023
882
523
312
188
291
875
1023
1023
1023
1023
888
526
314
189
302
883
1023
1023
1023
1023
891
528
315
190
310
888
1023
1023
1023
1023
896
530
317
191
317
892
1023
1023
1023
1023
895
530
317
191
323
896
1023
1023
1023
1023
894
529
316
191
325
897
1023
1023
1023
1023
885
524
313
189
323
896
1023
1023
1023
1023
870
515
308
186
318
893
1023
1023
1023
1023
858
508
304
184
318
893
1023
1023
1023
1023
847
502
300
181
318
893
1023
1023
1023
1023
836
495
297
179
314
890
1023
1023
1023
1023
821
487
291
176
305
885
1023
1023
1023
1023
802
476
285
172
298
880
1023
1023
1023
1023
784
466
279
168
286
872
1023
1023
1023
1023
764
454
272
164
276
865
1023
1023
1023
1023
743
441
264
160
265
858
1023
1023
1023
1023
723
430
257
156
254
850
1023
1023
1023
1023
703
418
250
152
240
840
1023
1023
1023
1023
682
406
243
147
230
832
1023
1023
1023
1023
671
400
239
145
232
834
1023
1023
1023
1023
684
407
243
148
253
849
1023
1023
1023
1023
763
453
272
164
426
955
1023
710
416
247
149
91
56
35
22
14
10
6
5
3
3
2
2
1
1
1
1
1
1
1
1
1
1
1
1
1
1
1
1
1
1
1
1
1
1
1
1
1
1
1
1
1
1
1
1
1
63
398
875
1023
1023
1023
1023
1023
1023
1023
1023
1023
1023
1023
1023
1023
1023
1023
1023
1023
1023
1023
1023
1023
1023
1023
1023
1023
1023
1023
1023
1023
1023
1023
1023
1023
1023
639
384
232
142
87
54
34
22
14
9
7
5
3
3
2
2
2
1
1
1
1
1
1
1
1
1
1
1
1
1
1
1
1
1
1
1
1
1
1
1
1
1
1
1
1
1
1
1
1
0
1
1
0
1
1
1
1
1
1
1
1
1
1
1
1
1
1
1
1
1
1
1
1
1
1
1
1
1
0
1
1
1
1
1
1
0
1
1
1
0
1
1
1
0
1
1
1
1
1
1
1
1
1
1
1
1
1
1
1
1
1
1
1
1
1
1
1
0
0
0
1
1
1
1
1
1
0
0
1
0
0
1
1
1
1
0
0
1
1
1
0
1
1
1
1
1
1
1
0
1
1
1
1
1
1
1
1
1
1
1
1
1
1
1
1
1
1
1
1
0
0
1
1
0
0
1
1
0
0
0
1
1
1
1
1
1
1
0
1
1
1
1
1
1
0
1
1
1
1
1
1
1
0
1
0
0
1
1
1
1
0
1
1
1
1
1
1
1
1
1
0
1
1
1
0
1
1
1
1
1
0
1
1
1
1
1
1
1
1
1
0
1
1
0
1
1
1
1
1
1
1
1
1
1
0
1
0
1
1
0
1
1
0
1
1
1
1
0
1
1
1
1
1
1
1
1
1
0
1
1
1
1
1
1
1
1
1
1
1
1
1
1
0
1
0
0
0
1
1
1
0
1
1
1
1
1
1
0
1
1
1
1
1
1
1
1
1
1
1
1
1
1
1
1
9
33
67
57
33
20
16
38
85
136
153
134
101
80
72
94
108
113
117
124
131
142
136
140
144
148
147
152
149
146
146
151
148
138
135
131
110
91
83
68
53
52
67
99
121
123
111
93
73
58
37
22
19
30
54
66
65
64
64
75
90
101
102
93
92
119
141
149
148
158
158
147
145
174
211
231
240
266
301
305
298
294
286
270
263
269
275
287
290
283
268
251
241
218
180
139
104
89
82
83
83
93
89
64
46
41
38
38
47
62
63
62
48
36
37
32
19
11
7
5
3
2
2
1
1
1
1
1
1
1
1
1
1
1
1
1
1
1
1
1
1
1
1
1
1
1
1
1
1
1
1
1
1
1
1
1
1
1
1
1
1
8
30
74
127
182
243
285
311
317
296
265
224
174
112
66
39
24
14
9
6
4
3
2
1
1
1
1
1
1
1
1
1
1
1
1
0
1
1
1
1
1
1
1
1
1
1
1
1
1
1
1
1
2
13
9
5
4
2
2
1
1
1
1
1
1
4
30
45
39
23
13
8
5
3
2
1
1
1
1
1
1
1
1
1
1
1
1
1
1
0
1
1
1
1
1
1
1
1
1
1
1
0
1
1
0
0
1
0
1
1
1
1
1
1
1
1
1
1
1
14
52
96
113
110
104
102
106
117
126
161
188
194
180
152
151
174
191
201
190
179
199
233
250
253
240
217
208
197
187
174
181
218
278
317
331
324
305
287
273
272
290
315
326
328
333
334
338
335
335
331
333
332
351
389
413
426
445
450
440
434
450
480
516
513
485
459
456
467
479
501
529
533
527
531
542
550
559
560
551
546
543
565
587
591
574
555
555
573
585
603
630
647
644
623
587
559
556
559
561
580
607
620
642
642
629
617
616
607
586
579
584
592
583
574
583
577
576
594
616
636
660
668
686
703
702
707
697
677
663
663
683
701
698
696
703
695
685
675
676
698
719
720
692
655
651
659
680
710
733
752
764
770
771
766
753
758
786
809
819
791
758
735
725
714
728
753
767
774
798
829
861
885
887
871
848
823
804
797
791
800
803
794
793
805
829
848
847
833
845
863
899
923
928
923
923
924
913
912
943
977
995
966
903
866
853
847
844
849
863
887
902
920
925
916
903
893
907
925
925
909
897
894
901
895
887
860
834
837
834
854
893
912
902
878
861
860
883
926
924
895
885
873
846
829
823
833
854
885
905
891
867
849
839
834
824
810
813
827
830
838
849
865
865
850
833
811
801
815
836
861
866
853
848
849
839
841
842
832
838
857
891
909
905
875
837
817
838
849
845
844
852
848
831
826
838
856
860
846
849
859
861
870
869
845
816
792
788
804
817
848
902
941
932
901
870
866
845
816
830
851
870
896
913
911
930
957
966
946
908
869
839
830
833
846
839
829
820
824
834
844
856
864
849
822
812
804
815
836
858
857
851
866
885
896
897
905
911
891
851
812
789
785
789
797
822
838
869
913
964
1014
1023
1023
1023
1023
1023
1023
1023
1023
1023
1023
1023
1023
1023
1023
962
856
773
712
667
652
664
680
696
722
739
750
765
794
810
792
769
761
749
751
747
752
772
779
777
789
803
800
793
801
800
781
768
757
769
787
817
846
842
813
793
763
735
727
745
786
823
828
810
782
783
792
794
800
809
825
829
829
837
849
845
850
883
899
896
876
839
829
846
855
850
852
862
880
905
925
943
945
925
883
849
852
867
880
896
906
894
872
859
840
846
856
859
868
888
917
934
941
934
951
947
927
909
910
937
970
986
965
939
935
922
911
905
915
897
856
834
833
848
848
833
827
820
818
803
787
790
820
852
881
863
800
763
760
741
718
716
714
704
702
707
711
721
729
718
684
671
683
683
642
598
572
556
564
591
621
645
647
627
592
560
546
559
562
556
544
549
573
577
562
554
566
579
591
607
599
564
530
522
532
546
551
540
533
534
537
534
537
556
578
590
581
572
592
627
656
647
649
656
640
611
581
583
597
628
664
686
711
749
751
723
693
678
676
687
707
713
723
732
721
725
756
797
810
792
748
723
728
737
756
775
793
806
817
819
817
823
828
817
784
769
770
798
825
823
815
825
834
833
857
909
922
909
890
882
874
877
891
890
865
837
826
831
845
869
881
878
885
901
895
882
873
862
866
887
891
887
896
915
944
965
973
968
944
932
925
916
899
896
909
918
927
924
915
924
928
934
961
978
980
960
926
917
933
946
922
900
902
912
910
912
907
899
887
893
908
898
885
880
882
890
894
912
930
911
877
868
892
915
909
901
893
890
896
910
897
885
882
902
900
885
875
878
872
862
848
853
871
892
906
903
905
906
909
929
957
971
965
957
942
927
917
910
903
911
907
911
933
964
984
979
973
954
938
956
984
984
964
950
935
916
918
951
989
1009
980
942
920
896
879
875
878
881
872
871
876
880
890
894
905
931
925
901
885
891
913
918
901
895
902
894
869
866
891
904
902
886
860
846
843
850
864
889
901
894
874
842
827
847
856
852
875
899
899
884
867
854
859
877
883
869
856
858
865
863
869
881
878
882
893
886
874
887
893
879
864
867
881
872
873
879
886
909
926
922
900
857
832
868
891
876
862
870
881
891
902
901
885
872
861
848
849
864
866
859
863
853
854
871
871
869
865
862
872
882
875
876
899
942
981
1017
1023
1023
1023
1023
1023
1023
1023
1023
1023
1023
1023
1023
992
931
865
821
810
804
783
760
749
743
747
751
746
771
804
809
813
815
802
811
840
843
843
858
871
868
847
813
787
781
797
799
804
824
847
849
835
814
811
813
810
814
830
826
821
819
821
815
821
837
844
837
821
813
830
842
864
890
899
871
854
862
867
873
863
850
838
834
840
816
796
786
816
881
922
945
935
900
870
871
881
885
891
883
856
835
832
836
848
881
912
910
880
863
877
925
961
953
919
893
874
853
844
838
833
834
847
855
858
866
891
899
905
926
929
900
872
850
837
840
859
872
887
896
896
888
877
875
879
869
830
805
802
809
817
806
811
812
808
811
812
806
812
830
835
833
821
792
786
785
760
752
756
764
755
737
726
713
693
684
689
697
682
660
661
664
648
621
612
603
583
579
603
621
633
653
652
610
567
549
562
574
597
628
651
659
667
683
674
639
595
552
527
533
557
581
592
605
625
637
644
650
670
688
679
649
635
622
606
617
640
656
675
681
680
679
696
705
691
699
693
655
640
647
672
707
699
660
664
688
695
689
682
669
654
655
656
658
650
642
647
661
688
697
706
718
707
664
633
631
638
660
680
686
690
677
649
631
621
629
653
674
681
674
664
654
655
655
646
638
642
642
653
664
663
649
623
614
618
624
647
671
674
667
661
659
675
692
690
679
663
659
680
688
667
664
681
721
763
774
723
665
635
639
657
664
660
633
631
652
668
667
663
661
667
668
684
696
691
681
670
674
682
682
671
665
678
693
698
698
697
690
682
682
692
702
711
706
702
706
708
715
718
714
706
704
719
717
700
663
624
608
633
682
705
693
674
661
652
658
652
667
711
724
708
684
666
653
661
686
710
704
683
657
628
611
617
630
658
675
696
718
736
738
718
675
658
639
628
655
686
692
676
661
641
619
609
602
607
606
586
588
610
618
620
626
635
621
611
618
642
667
676
676
674
660
631
616
613
600
601
615
623
641
654
636
592
566
569
588
594
590
587
589
603
613
622
623
604
593
589
577
564
569
583
597
593
584
573
575
596
610
612
594
571
560
555
561
557
547
535
541
553
554
569
583
598
591
573
544
517
495
496
508
517
534
532
516
528
556
574
575
573
577
570
559
561
571
555
546
554
559
568
565
578
595
611
622
629
588
540
530
536
547
565
605
653
679
656
619
585
554
554
545
527
513
492
478
474
486
510
521
527
546
559
560
554
547
533
521
524
543
554
561
573
581
594
604
609
658
739
816
879
919
956
987
988
964
941
904
858
800
731
672
607
541
502
470
449
449
463
493
546
599
613
592
539
513
509
510
515
537
550
551
558
565
571
563
556
558
565
557
534
536
559
567
575
573
572
581
596
612
624
597
578
579
582
583
600
619
634
635
640
643
644
631
611
604
608
616
624
651
662
640
634
639
623
613
633
653
651
647
640
646
656
678
692
700
707
710
715
722
724
735
741
723
698
691
700
713
719
730
734
740
728
705
688
690
694
703
730
753
752
737
728
727
725
717
723
736
732
734
768
777
764
777
787
749
702
697
726
759
776
780
774
750
722
704
713
739
777
806
802
787
776
758
743
736
724
727
743
747
744
757
767
772
781
783
770
744
718
697
681
694
703
699
696
690
680
667
659
641
647
666
673
662
651
643
649
652
656
657
632
622
624
625
627
623
595
571
555
546
556
553
549
553
561
590
611
631
626
604
610
626
634
629
625
614
601
592
590
573
572
571
579
602
625
640
642
642
641
642
653
650
639
643
637
635
641
624
618
611
600
594
592
595
607
616
616
599
581
582
596
621
640
643
627
592
560
553
561
576
600
623
619
595
574
559
562
568
568
580
613
625
610
588
575
558
553
567
566
562
570
573
567
553
539
540
565
594
600
604
612
624
626
610
591
598
602
614
616
609
610
590
563
545
550
571
590
597
604
611
610
614
601
607
625
641
657
643
610
579
569
580
585
589
596
600
583
567
583
612
635
636
629
614
594
573
573
589
603
622
630
615
585
558
550
566
578
587
604
628
624
600
578
588
597
603
604
604
623
657
691
684
676
664
655
654
653
663
665
656
644
646
645
638
654
661
667
676
683
690
701
699
695
665
623
599
588
599
625
638
644
649
658
659
671
679
670
659
664
678
688
701
707
694
675
661
665
675
676
671
672
660
651
646
635
620
632
674
690
695
707
707
678
632
609
621
654
680
676
672
664
658
676
703
711
693
647
617
616
625
634
640
651
660
670
654
629
612
609
623
654
679
683
671
662
657
652
658
653
651
667
665
658
661
661
647
632
633
654
669
666
655
624
585
568
582
581
589
608
608
615
609
575
485
407
352
284
224
198
188
165
121
96
139
200
213
215
258
304
334
379
483
664
892
1023
1023
1023
1023
1023
1023
1023
1023
1023
1023
1023
1023
1023
1023
1023
1023
1023
1023
1023
1023
1023
1023
1023
1023
1023
1023
1023
1023
1023
1023
1023
1023
1023
1023
1023
1023
1023
1023
1023
1023
1023
1023
1023
1023
1023
1023
1023
1023
1023
1023
1023
1023
1023
1023
1023
1023
1023
1023
1023
1023
1023
1023
1023
1023
1023
1023
1023
1023
1023
1023
1023
1023
1023
1023
1023
1023
1023
1023
1023
1023
1023
1023
1023
1023
1023
1023
1023
1023
1023
1023
1023
1023
1023
1023
1023
1023
1023
1022
606
363
220
135
83
52
33
21
14
9
6
5
3
3
2
2
2
1
1
1
1
1
1
1
1
1
1
1
1
1
1
1
1
1
1
1
1
1
1
1
1
1
1
1
1
1
1
1
1
1
1
1
1
1
1
1
1
1
1
1
1
62
645
1023
1023
1023
1023
1023
976
576
344
207
138
671
1023
1023
1023
1023
854
505
302
182
112
592
1023
1023
1023
1023
704
417
250
152
96
613
1023
1023
1023
1023
765
453
271
164
100
62
39
24
16
10
7
5
4
3
2
2
1
1
1
1
1
1
1
1
1
1
1
1
1
1
1
1
1
1
1
1
1
1
1
1
1
1
1
1
1
1
1
1
1
1
1
1
1
1
1
1
1
1
1
1
1
1
1
1
1
1
1
1
1
1
1
1
1
1
1
1
1
1
1
1
1
1
1
1
1
1
1
1
1
1
1
1
1
1
1
1
1
1
1
1
1
1
0
1
1
1
1
1
1
1
4
102
264
439
591
716
828
898
905
863
850
879
897
900
934
989
1015
989
951
926
925
911
859
822
823
815
778
750
753
739
703
649
605
581
551
513
469
438
412
388
337
313
332
353
333
315
338
346
288
214
154
134
150
149
116
81
67
66
60
38
23
15
9
6
4
3
2
2
1
1
1
1
1
1
1
1
1
1
1
1
1
1
1
1
19
58
112
157
180
189
189
215
264
319
342
362
401
447
493
498
498
516
537
568
597
629
678
747
826
865
831
742
667
638
651
702
758
781
772
759
765
797
839
890
931
952
949
936
919
932
947
913
886
892
927
985
1020
1023
1023
1023
1023
1023
1023
1023
1023
1023
1020
1004
998
1008
1023
1023
1023
1023
1023
1023
1023
1023
1023
1023
1023
1023
1023
1023
1023
1023
1023
1023
1023
1023
1023
1023
1023
1023
1023
1023
1023
1023
1023
1023
1023
1023
1023
1023
1023
1023
1023
1023
1023
1023
1023
1023
1023
1023
1023
1023
1023
1023
1023
1023
1023
1023
1023
1023
1023
1023
1023
1023
1023
1023
1023
1023
1023
1023
1023
1023
1023
1023
1023
1023
1023
1023
1023
1023
1023
1023
1023
1023
1023
1023
1023
1023
1023
1023
1023
1023
1023
1023
1021
993
968
954
965
984
1008
1008
1000
975
985
1013
1023
1023
1011
1014
1007
982
943
927
912
901
892
889
891
907
911
900
886
878
855
828
810
817
829
810
769
754
763
767
790
809
805
807
827
827
817
796
786
819
842
836
808
775
756
766
800
822
809
794
788
806
831
838
843
880
921
919
890
855
811
793
805
820
828
838
851
861
854
826
788
757
766
797
810
799
794
793
794
787
774
755
749
754
747
747
776
806
805
780
731
695
675
697
754
810
863
889
926
995
1023
1023
1023
1023
1023
1023
1023
1023
1013
926
822
718
630
579
556
561
568
592
607
610
624
654
698
728
723
714
703
683
670
654
645
668
709
724
716
709
698
698
700
701
694
699
726
749
751
750
748
746
734
707
699
734
787
843
897
908
876
837
803
776
754
750
767
781
797
811
804
802
791
790
769
740
739
764
776
756
762
757
738
730
744
758
758
747
732
760
780
768
764
772
787
809
830
850
850
839
850
853
824
797
784
772
761
773
781
776
765
787
820
841
845
833
828
829
821
789
754
746
760
783
794
789
785
810
810
790
777
785
777
761
754
758
775
795
817
827
826
787
785
784
754
740
730
742
755
749
731
707
701
698
698
698
704
739
747
759
752
734
716
706
690
668
673
699
706
682
668
677
681
668
648
640
651
661
672
680
684
659
636
613
584
582
608
623
625
625
625
611
611
626
630
634
633
624
625
635
626
616
626
635
649
644
626
607
600
600
604
613
610
611
621
625
626
651
676
675
682
661
635
630
626
619
594
582
581
568
545
538
559
592
617
616
606
601
580
546
540
563
571
569
547
515
533
583
614
635
652
648
618
572
522
485
481
497
504
515
522
512
492
448
409
401
413
414
415
419
426
407
361
350
371
390
403
414
410
423
439
454
454
452
456
473
467
455
454
456
456
424
402
419
451
463
463
459
471
509
526
515
487
453
430
426
429
434
456
464
441
426
424
429
434
438
462
493
506
500
490
478
488
502
507
506
517
508
498
505
496
486
501
521
540
545
530
524
513
491
475
486
528
531
515
503
514
531
534
545
572
587
587
568
556
565
577
573
559
555
556
557
524
512
521
526
533
554
574
587
589
579
570
582
623
660
655
611
579
552
529
520
542
575
599
597
582
567
574
590
600
596
579
558
525
533
560
563
592
623
632
627
622
611
590
580
581
585
584
591
616
617
606
598
596
610
601
587
584
597
609
601
597
604
591
575
578
611
638
631
614
595
601
614
622
650
656
638
623
614
591
556
525
513
514
518
530
564
569
545
544
566
593
606
594
582
581
581
578
565
569
590
598
590
569
571
597
612
611
597
579
573
584
607
597
556
539
576
591
595
582
574
563
572
590
592
577
560
576
607
626
595
560
542
547
562
574
590
594
578
581
590
580
573
569
575
580
586
608
632
634
628
615
612
615
612
609
600
597
596
597
604
609
581
569
582
606
637
654
633
615
617
636
648
634
606
590
601
615
629
647
656
677
681
673
672
666
664
653
614
583
598
637
670
680
682
663
640
646
624
582
550
538
534
527
523
534
551
578
594
619
609
579
555
560
587
621
664
703
733
775
828
893
934
937
941
954
941
874
790
712
631
565
525
509
499
464
426
397
382
365
378
394
403
423
444
476
500
494
450
417
419
442
462
466
466
467
474
477
466
468
488
498
483
455
441
451
479
505
499
471
447
456
463
458
431
403
405
435
449
436
417
414
440
465
486
504
512
510
506
497
465
431
410
431
485
529
533
510
501
496
490
500
510
489
458
451
465
501
532
542
523
487
454
435
448
453
453
450
449
463
481
495
496
494
501
500
503
497
490
493
485
491
517
534
547
555
558
569
572
561
557
557
563
576
597
611
583
543
524
544
553
550
548
551
560
564
564
555
529
521
540
541
539
552
580
609
617
593
559
546
528
518
510
508
506
505
526
559
597
616
582
523
456
413
398
400
411
422
409
403
429
443
436
417
395
385
379
372
359
354
336
345
364
379
384
373
379
378
359
349
364
374
376
358
350
359
372
355
344
367
383
390
388
374
365
366
372
369
359
368
382
377
374
385
403
435
477
526
538
519
469
400
358
363
380
401
414
426
421
408
416
404
393
406
414
423
429
427
416
405
412
426
450
478
465
432
432
443
433
431
420
437
477
497
479
435
377
360
367
356
341
366
430
494
515
520
511
492
479
464
448
429
396
384
399
412
410
395
391
392
394
412
430
432
436
433
431
438
441
434
418
416
416
411
423
477
520
525
501
463
420
384
379
388
373
360
374
393
401
408
416
410
417
445
460
455
456
446
434
421
416
436
446
427
400
392
422
456
444
414
408
422
430
414
397
397
408
423
425
422
403
369
366
407
459
486
489
502
489
449
416
419
437
439
430
426
422
405
393
393
404
428
482
512
512
508
488
443
400
382
393
406
423
438
447
441
424
410
415
452
492
494
468
454
468
488
490
470
426
400
413
445
452
438
428
433
448
433
411
426
472
513
512
494
474
459
445
435
433
418
400
410
437
452
461
461
435
392
396
428
483
518
541
557
541
508
464
410
387
388
393
373
356
363
398
442
466
455
453
466
480
484
472
469
480
459
431
412
417
442
451
444
442
436
449
479
516
535
529
486
435
416
394
371
373
379
394
390
373
385
428
473
482
471
470
482
465
437
398
366
377
402
427
431
427
429
424
397
398
415
452
486
511
506
477
443
417
406
411
430
460
472
471
465
449
445
459
472
476
480
468
451
453
438
429
414
412
428
438
435
417
404
397
393
413
439
455
460
464
440
408
391
405
437
471
483
478
467
468
456
433
423
421
413
431
464
481
481
489
504
496
464
440
432
438
441
449
454
453
466
454
441
455
441
407
383
370
363
354
350
366
386
399
410
425
414
393
394
449
502
513
499
470
434
404
391
389
391
412
467
538
599
645
697
752
802
826
846
836
788
717
635
568
505
453
400
351
325
319
310
299
285
273
291
325
351
359
359
404
480
523
514
455
381
330
300
289
291
309
327
329
326
325
312
318
326
324
325
351
400
446
452
427
410
382
350
334
337
349
368
382
385
388
393
392
395
399
410
413
417
427
415
398
411
414
412
420
409
388
381
399
414
429
454
462
471
473
467
442
394
366
371
392
408
408
413
424
421
418
410
419
437
445
451
451
445
436
445
462
463
450
458
480
492
488
466
432
415
415
398
396
397
404
437
466
474
484
507
524
536
549
551
534
516
515
510
521
526
512
488
474
475
496
520
531
525
492
469
462
466
484
489
479
467
472
472
460
454
446
443
434
434
441
440
446
444
434
420
415
427
427
418
401
384
381
369
367
368
337
296
279
281
284
285
285
280
275
273
301
334
348
356
340
300
287
287
289
297
316
324
312
303
297
310
322
311
298
301
315
331
338
342
342
335
323
312
303
307
313
327
360
368
339
301
291
307
329
335
332
328
322
314
306
290
292
318
326
312
312
326
336
337
361
380
372
369
358
337
330
341
341
324
321
312
306
324
339
351
366
376
380
385
378
375
364
360
357
361
357
340
329
344
369
384
388
377
360
354
360
362
360
378
401
405
408
426
452
453
435
409
375
348
330
318
308
313
320
314
321
346
368
384
403
399
396
404
400
393
402
405
406
407
409
396
393
405
425
429
417
426
436
419
415
434
437
421
409
396
383
369
366
367
370
376
374
374
359
360
382
406
418
400
382
381
393
398
397
396
390
384
395
410
421
419
410
402
386
362
354
412
482
519
513
480
432
394
363
349
353
361
352
356
387
414
435
444
454
451
453
451
425
414
409
412
420
409
402
401
403
409
413
417
425
442
456
465
461
476
485
472
457
447
441
429
411
393
384
396
412
430
459
473
454
418
403
399
412
420
432
435
450
450
447
456
490
528
540
512
472
446
426
413
421
428
441
464
461
446
436
437
454
476
476
453
464
479
445
408
378
373
409
453
461
446
453
464
449
423
415
430
443
445
446
445
456
455
441
419
408
434
471
462
443
441
454
462
458
449
443
450
455
451
470
489
491
465
428
402
401
429
476
511
510
494
481
466
451
435
412
405
413
399
398
409
423
427
415
421
439
448
460
453
422
394
402
418
430
442
462
482
495
488
464
448
445
466
483
488
491
479
472
467
466
490
509
521
514
491
469
458
459
450
459
488
524
527
517
500
496
510
522
532
519
494
470
459
460
471
479
490
509
515
508
509
523
545
558
543
541
551
516
479
461
453
466
504
519
502
483
470
464
467
483
501
503
499
496
483
475
485
485
490
530
595
644
676
725
800
882
939
960
935
874
821
777
720
663
592
527
483
449
413
387
375
380
389
405
415
407
391
388
407
424
429
432
446
462
484
499
493
470
470
483
489
499
490
483
471
443
417
409
402
402
412
424
433
438
443
449
465
459
443
441
459
478
483
477
473
475
482
481
469
476
503
519
509
512
523
526
520
534
525
499
477
444
431
427
431
451
477
490
501
513
517
520
525
536
540
524
510
502
499
513
516
522
530
537
527
496
502
511
518
530
548
546
538
535
517
503
486
481
496
502
493
507
541
569
574
573
564
556
544
554
598
602
583
571
558
557
563
562
561
567
571
569
566
560
569
594
582
565
564
561
581
597
589
558
527
511
498
489
497
494
492
487
477
474
465
448
432
434
418
420
432
430
443
481
488
483
460
427
394
379
377
387
397
393
384
371
352
344
358
405
441
448
419
377
342
327
319
304
306
315
335
364
378
382
368
358
353
356
364
381
398
400
402
394
374
346
349
385
397
400
410
415
407
406
401
401
409
426
419
404
398
413
429
434
442
448
443
443
445
428
416
418
414
404
408
433
444
445
450
456
463
464
445
428
443
462
465
447
426
418
410
393
397
436
457
426
394
410
457
495
490
459
434
428
432
420
400
388
392
409
430
445
447
467
487
492
490
461
434
421
408
426
440
425
413
412
408
401
404
427
457
463
442
435
449
470
489
471
439
429
433
442
466
485
494
494
484
454
433
431
431
435
446
472
501
496
467
448
457
474
473
456
434
407
392
393
405
435
437
446
450
450
450
440
427
418
405
395
407
427
447
460
466
476
488
496
509
514
503
482
446
419
385
377
412
453
471
469
451
440
435
442
435
418
425
454
468
467
448
429
429
450
459
450
450
436
435
464
485
473
463
475
480
460
438
436
448
451
461
460
436
413
413
437
458
467
473
459
419
397
399
410
447
475
480
475
470
452
428
408
399
395
410
423
440
433
423
435
447
451
458
453
447
448
452
465
497
501
480
471
477
473
484
485
465
443
448
465
470
482
481
470
467
468
459
437
416
420
438
442
449
458
468
497
508
500
492
500
489
489
491
497
498
474
448
427
427
455
487
487
470
454
440
426
424
446
466
475
484
490
506
516
533
541
526
500
481
457
451
458
464
454
452
461
469
466
466
481
492
498
502
485
468
469
466
459
453
457
474
478
462
462
470
473
487
504
514
509
506
502
507
490
473
460
467
480
505
520
543
572
571
537
478
425
412
446
490
480
471
463
457
462
462
436
443
466
460
458
466
466
458
458
481
498
468
448
464
491
486
473
475
490
499
509
490
476
488
527
573
631
703
784
864
930
939
923
895
846
772
702
631
548
483
437
406
377
364
385
387
374
359
356
356
375
405
425
442
455
446
428
402
385
392
394
391
393
391
388
392
404
406
406
425
432
425
408
413
422
429
441
461
469
470
475
477
492
482
456
420
389
389
417
443
464
470
454
446
444
432
443
453
455
447
431
428
453
474
478
465
450
452
472
477
485
490
503
502
470
442
437
447
449
448
463
487
511
517
509
513
503
491
493
521
543
543
529
520
514
492
466
452
469
498
514
524
526
534
539
545
555
568
567
534
508
508
506
501
518
543
567
576
559
560
571
591
618
632
626
623
616
612
606
600
586
574
566
569
573
573
591
588
570
567
561
555
544
523
522
519
508
491
496
504
504
489
456
443
471
501
516
500
465
430
407
408
408
403
386
372
372
380
409
425
415
398
378
384
384
375
361
352
355
355
374
401
390
369
364
380
397
384
382
401
434
462
472
492
509
483
444
414
395
375
361
355
367
402
450
463
456
471
464
464
488
495
489
469
447
431
432
446
451
435
429
438
446
445
442
417
427
430
429
442
465
487
500
508
502
469
454
457
455
454
470
481
487
489
484
487
487
498
494
464
447
432
422
417
412
416
428
428
430
421
423
424
398
399
427
465
487
491
488
476
462
440
416
412
418
429
438
446
450
459
468
476
490
487
482
485
514
526
484
444
407
380
366
376
395
403
403
408
421
460
502
519
523
496
437
393
379
401
448
472
469
459
452
451
440
440
449
463
477
455
450
460
474
481
479
475
473
467
471
474
466
464
441
410
391
401
409
416
426
442
469
496
513
504
483
484
492
484
474
475
476
471
454
441
450
500
557
586
582
549
491
442
430
431
439
449
441
420
413
402
401
421
444
467
479
518
533
521
498
477
461
450
436
448
491
504
463
438
454
477
496
504
514
533
552
548
540
517
476
457
456
447
433
418
397
409
445
454
451
452
470
489
509
524
514
511
509
497
483
476
464
451
445
434
440
443
467
498
513
530
567
590
571
535
499
460
437
434
436
449
478
490
496
498
499
492
479
491
517
541
549
564
603
592
561
524
485
462
454
464
474
483
496
504
520
542
529
503
490
486
496
520
549
563
568
566
567
553
547
539
523
501
499
529
563
565
546
536
523
532
572
603
598
560
521
492
479
480
488
502
519
520
511
515
526
537
534
530
541
543
526
519
519
528
544
543
542
546
549
537
523
512
523
529
518
514
515
519
524
530
532
526
543
552
559
570
567
558
564
559
539
524
514
507
496
494
499
498
487
485
482
481
486
481
480
494
500
494
485
479
489
493
484
503
553
602
644
689
739
797
861
907
928
925
904
883
852
796
700
612
546
499
470
456
426
419
415
415
408
401
407
401
409
438
461
459
473
468
454
457
472
479
488
506
528
532
519
488
445
421
416
419
425
423
429
448
472
490
500
493
497
506
502
484
473
467
465
474
473
470
478
507
537
530
502
504
514
501
484
506
548
580
568
534
501
491
493
493
498
517
504
495
486
488
501
505
506
527
539
551
563
568
545
538
533
512
491
492
502
514
535
548
547
555
563
551
526
509
524
568
617
643
627
591
550
521
528
553
565
561
555
562
585
618
615
605
591
570
565
567
573
595
618
631
631
621
606
600
593
585
579
568
567
559
551
542
535
547
570
590
585
576
560
545
527
523
540
546
547
543
531
511
495
476
464
463
461
490
512
502
484
476
460
443
430
429
436
431
421
420
421
412
395
376
370
379
377
373
392
408
444
476
472
447
417
397
391
404
416
409
404
396
380
388
415
419
414
427
455
460
440
423
411
419
433
436
422
407
398
402
406
414
427
442
449
436
420
429
445
453
449
444
436
449
475
480
464
452
443
443
452
471
475
479
481
459
441
441
447
455
464
472
472
484
487
482
465
467
484
494
494
473
445
429
427
442
454
468
478
469
465
476
478
465
472
482
481
466
450
448
458
470
482
489
489
485
467
450
456
467
461
449
457
472
475
467
444
443
469
489
510
523
523
507
476
454
453
454
455
471
493
508
505
465
433
464
502
506
514
497
465
453
449
450
460
462
471
474
477
470
456
454
463
483
487
496
506
506
499
486
473
465
460
452
454
471
515
548
542
531
524
522
511
492
452
434
451
482
501
495
488
504
528
529
520
502
497
503
506
496
485
490
507
529
540
542
553
532
491
479
498
527
539
527
517
514
516
522
521
519
539
547
558
565
552
528
517
518
506
497
495
482
485
509
539
554
554
557
545
527
538
561
577
578
564
556
535
527
528
516
502
519
528
528
514
522
536
547
558
568
566
544
513
485
482
501
519
518
518
515
523
525
512
509
499
494
524
555
551
532
529
522
518
507
501
500
512
535
539
510
493
489
494
502
509
493
475
485
502
501
503
523
525
508
518
517
503
502
516
509
474
448
464
519
540
540
545
543
518
515
519
510
491
479
485
490
477
482
501
520
540
557
568
551
521
500
511
537
555
575
588
585
588
573
548
545
561
558
538
543
568
589
586
565
544
523
514
515
526
535
543
551
558
558
567
586
593
581
561
545
563
585
588
586
580
565
552
563
569
564
562
552
547
548
541
555
570
550
543
521
504
509
521
519
509
510
536
569
579
571
547
546
567
573
585
616
668
733
791
833
876
914
928
929
916
878
822
764
699
622
542
490
465
430
403
397
389
383
385
399
432
465
476
483
481
474
475
480
493
507
522
512
496
503
522
511
496
500
500
490
474
442
416
418
451
485
502
513
532
551
548
532
515
495
483
474
467
466
485
505
519
536
548
544
545
554
554
532
511
505
503
508
515
523
520
528
536
520
502
495
500
527
542
557
557
560
546
519
509
499
487
496
507
515
510
518
530
551
566
579
582
562
549
544
537
551
574
591
579
562
546
539
546
547
555
554
548
558
568
573
575
579
583
586
592
608
609
601
603
606
613
618
624
603
574
593
630
636
627
602
585
590
592
572
572
617
648
635
634
637
618
593
580
573
568
569
568
554
551
555
555
554
549
540
513
490
478
474
464
443
430
427
421
419
412
408
417
420
414
414
430
433
414
396
387
393
399
408
425
420
401
390
401
410
415
419
413
418
430
443
447
441
425
420
435
439
435
429
422
422
419
428
435
450
449
454
446
443
457
454
468
488
493
491
496
498
508
516
482
454
451
464
474
483
498
510
500
486
493
505
502
491
510
520
493
483
488
474
467
472
488
486
480
490
500
499
492
482
467
455
443
452
467
488
504
501
498
505
511
493
460
439
446
447
444
443
471
501
494
479
483
482
477
477
464
441
451
478
503
501
474
437
411
416
447
473
480
472
449
430
444
487
500
484
465
459
456
458
464
456
448
447
462
448
423
429
448
452
452
468
476
472
483
487
468
449
445
453
477
499
488
468
459
457
465
475
486
483
470
463
468
484
489
487
493
482
470
468
459
445
430
407
417
452
479
479
464
456
460
462
467
479
482
459
429
418
417
430
449
458
458
463
458
458
490
533
548
561
553
523
491
484
491
493
494
508
518
524
521
510
491
488
506
520
502
480
469
472
484
498
500
481
467
468
485
505
509
499
489
495
521
549
547
522
501
507
513
517
529
537
521
510
515
507
506
513
542
575
567
552
544
538
515
495
497
518
527
522
524
537
549
542
527
504
499
520
561
593
593
571
542
515
522
540
544
546
552
550
541
529
525
540
551
536
515
515
537
538
524
508
508
513
501
506
542
557
553
552
534
543
560
562
562
559
551
538
526
530
539
526
504
515
534
555
580
594
575
563
558
536
516
508
517
523
530
541
555
552
543
552
566
569
563
577
581
573
581
582
558
533
529
533
544
571
608
627
642
638
605
563
548
530
508
487
460
473
493
498
503
497
498
491
483
497
520
532
527
506
493
496
529
559
561
552
570
617
661
712
744
773
825
888
932
961
961
910
824
742
676
619
576
527
484
455
435
404
377
368
383
413
448
469
480
475
470
468
471
467
470
492
490
471
462
470
470
448
453
460
450
459
479
498
496
474
474
476
470
456
441
443
459
471
489
514
527
523
504
481
472
472
458
458
476
482
471
479
499
501
505
507
519
540
551
524
501
498
499
509
493
470
481
516
548
548
540
540
541
547
547
542
524
506
509
501
496
496
501
532
558
551
535
523
510
526
550
566
570
578
587
603
614
612
613
605
584
571
564
564
563
553
562
584
579
568
565
561
566
584
594
595
597
589
575
564
565
564
562
561
580
603
601
604
616
612
616
611
591
579
584
602
617
627
635
617
590
564
533
508
496
506
511
496
483
467
455
475
480
468
446
418
398
395
399
398
387
375
378
393
396
396
398
391
385
378
361
366
399
410
418
416
391
387
381
383
387
405
413
417
418
404
390
394
403
413
426
445
458
438
399
403
424
420
417
408
414
423
436
432
427
437
453
457
452
461
469
477
463
449
444
443
439
444
459
480
490
481
482
488
504
506
504
495
482
479
476
480
500
515
500
461
457
476
482
491
483
483
503
504
489
468
471
485
482
479
496
520
521
495
478
473
486
501
514
496
474
466
452
449
449
453
480
510
528
525
515
497
488
484
466
443
430
453
464
478
492
478
450
454
469
474
461
448
442
439
447
476
482
472
469
463
477
493
500
491
465
450
441
451
487
513
496
470
457
451
430
413
436
480
498
494
486
494
509
530
554
563
556
540
523
500
481
477
472
466
456
451
452
455
475
502
510
496
471
466
481
492
483
476
501
516
517
501
492
480
466
475
509
533
528
525
539
540
543
534
491
477
495
513
519
514
507
497
498
497
496
514
531
525
523
522
519
505
493
490
505
531
542
533
519
519
498
465
466
509
537
540
531
516
508
509
509
517
525
519
510
516
524
533
532
535
536
531
516
507
492
480
481
483
494
511
532
549
546
525
497
508
521
529
525
510
506
504
496
509
506
481
481
505
499
497
501
517
532
531
521
525
539
555
546
531
530
522
491
476
472
471
482
498
492
469
466
493
527
538
525
517
520
524
503
492
509
527
521
507
523
540
546
550
557
563
558
531
512
514
512
496
485
472
471
467
479
495
507
507
508
519
525
524
525
522
529
545
540
513
493
507
515
515
526
554
557
563
568
577
591
597
591
575
554
545
550
562
583
574
539
519
514
524
545
569
589
566
526
502
506
523
523
519
517
503
500
508
506
498
476
472
476
482
501
522
525
534
525
498
480
480
484
481
470
463
466
492
500
496
500
519
571
627
695
779
859
911
941
968
969
930
871
813
741
666
613
569
524
493
452
432
421
394
387
394
387
385
402
434
461
481
484
491
509
520
510
494
485
476
491
512
514
480
446
436
441
451
465
456
456
473
476
470
476
492
496
492
488
487
482
477
464
443
446
484
508
518
530
524
505
499
500
495
482
460
469
485
482
492
502
508
515
519
510
501
504
504
494
473
459
479
513
532
546
549
536
529
521
509
491
491
496
503
515
524
501
484
494
520
548
558
555
554
547
547
545
545
548
558
538
508
499
522
542
540
554
574
573
568
563
566
572
587
593
581
569
557
559
579
581
573
561
564
577
578
577
576
564
548
549
556
551
543
563
606
614
602
588
575
579
569
553
542
532
537
532
499
467
428
406
413
438
451
428
394
386
393
387
384
393
410
419
427
422
405
389
371
366
360
350
349
367
389
408
403
382
369
347
339
350
368
394
412
423
404
374
377
384
384
403
410
396
396
397
395
386
385
395
397
390
403
415
421
430
446
452
446
443
448
460
476
468
456
450
447
455
459
456
449
470
504
495
462
450
454
465
474
476
482
481
467
451
450
453
453
451
451
462
463
468
482
491
475
468
466
467
499
526
519
499
494
495
470
446
447
449
442
468
510
505
471
457
463
469
457
442
456
464
452
450
464
479
491
500
538
554
556
555
541
536
531
515
503
497
487
481
481
501
514
501
471
463
474
486
490
497
495
502
539
541
496
453
433
419
428
455
469
474
489
509
525
529
532
536
528
521
518
522
509
487
482
487
492
481
464
461
470
489
489
470
469
487
499
502
510
525
528
528
527
517
509
498
484
491
507
519
531
537
519
507
499
477
467
489
522
515
501
491
508
524
527
509
510
516
507
487
463
446
445
450
463
466
451
451
469
504
529
534
542
544
549
565
567
574
560
535
523
509
499
505
510
518
509
501
498
507
505
515
536
534
524
527
527
514
511
525
549
553
555
541
524
517
507
498
498
507
511
509
514
520
528
530
502
481
495
519
538
542
533
537
547
561
561
548
531
521
521
527
539
556
573
580
570
542
512
513
529
536
551
579
579
568
564
562
571
583
586
569
551
539
526
505
480
468
477
507
540
565
576
571
559
548
537
546
571
583
579
570
573
571
575
572
579
587
580
569
585
609
624
624
611
600
580
554
537
536
533
534
542
546
559
577
577
573
570
565
546
510
473
460
471
492
510
535
549
555
571
593
603
591
581
579
592
597
584
554
553
580
578
553
522
494
485
498
504
486
464
463
488
510
488
452
445
460
469
469
478
510
544
580
603
643
688
744
822
878
894
895
889
859
809
743
653
560
499
469
460
452
427
390
338
296
294
300
273
233
192
147
136
179
217
219
213
216
235
231
182
126
107
117
118
102
98
100
70
43
27
17
11
7
5
3
3
24
116
243
383
501
634
801
1023
1023
1023
1023
1023
1023
1023
1023
1023
1023
1023
1023
1023
1023
1023
1023
1023
1023
1023
1023
1023
1023
1023
1023
1023
1023
1023
1023
1023
1023
1023
1023
1023
1023
1023
1023
1023
1023
1023
1023
1023
1023
1023
1023
1023
1023
1023
1023
1023
1023
1023
1023
1023
1023
1023
1023
1023
1023
1023
1023
1023
1023
1023
1023
1023
1023
1023
1023
1023
1023
1023
1023
1023
1023
1023
1023
1023
1023
1023
1023
1023
1023
1023
1023
1023
1023
1023
1023
1023
1023
1023
1023
1023
1023
1023
1023
1023
1023
1023
1023
1023
1023
1023
1023
1023
1023
1023
1023
1023
1023
1023
1023
1023
1023
1023
1023
1023
1023
1023
1023
1023
1023
1023
1023
1023
1023
1023
1023
1023
1023
1023
1023
1023
1023
1023
1023
1023
1023
1023
1023
1023
1023
1023
1023
1023
1023
1023
1023
1023
1023
1023
1023
1023
1023
1023
1023
1023
1023
1023
1023
1023
1023
1023
1023
1023
1023
1023
1023
1023
1023
1023
1023
747
1023
1023
1023
1023
1000
590
354
213
131
81
465
976
1023
1023
901
530
314
189
115
71
457
972
1023
1023
903
531
315
189
115
71
458
972
1023
1023
910
535
317
190
116
71
456
971
1023
1023
925
544
322
193
117
72
449
967
1023
1023
924
543
322
193
117
72
438
961
1023
1023
924
543
321
192
117
72
429
956
1023
1023
909
534
316
190
115
71
429
956
1023
1023
903
531
314
188
115
70
431
957
1023
1023
895
526
312
187
114
70
428
955
1023
1023
884
520
308
185
112
69
429
956
1023
1023
873
514
304
183
111
68
434
959
1023
1023
867
510
302
181
110
68
443
964
1023
1023
864
508
301
181
110
68
452
969
1023
1023
863
507
301
180
110
67
463
975
1023
1023
863
508
301
181
110
68
451
968
1023
882
515
304
182
110
67
42
26
17
11
7
5
4
3
2
2
2
1
1
1
1
1
1
1
1
1
1
1
1
1
1
1
1
1
1
1
1
1
1
1
1
1
1
1
1
1
1
367
916
1023
