827
772
495
293
174
140
367
663
874
982
992
816
492
291
173
138
363
659
871
980
990
813
489
290
172
140
369
666
878
988
995
815
490
290
172
141
371
669
880
988
994
812
487
288
171
140
373
672
884
992
997
811
485
287
171
140
377
683
898
1008
1012
818
487
289
172
143
390
702
920
1023
1023
821
487
289
172
142
391
706
925
1023
1023
822
487
289
172
144
394
710
928
1023
1023
822
486
288
171
143
394
712
931
1023
1023
820
484
287
171
144
400
720
941
1023
1023
825
487
288
172
146
407
730
952
1023
1023
823
484
287
171
144
405
729
951
1023
1023
821
483
286
171
145
410
736
958
1023
1023
819
481
285
170
144
410
739
963
1023
1023
820
481
285
170
147
418
748
973
1023
1023
825
483
287
171
149
422
754
978
1023
1023
825
483
287
171
151
428
760
983
1023
1023
818
478
284
169
149
427
761
987
1023
1023
822
481
285
170
152
434
771
995
1023
1023
820
479
284
169
153
437
772
995
1023
1023
813
475
282
168
155
442
776
996
1023
1023
804
469
279
166
158
449
783
999
1023
1023
798
465
276
165
161
456
788
1000
1023
1023
790
461
274
163
164
463
794
1004
1023
1023
785
458
272
162
169
473
802
1009
1023
1023
785
458
272
162
170
477
809
1017
1023
1023
788
459
273
163
164
467
804
1019
1023
1023
788
460
273
163
157
457
800
1023
1023
1023
792
461
274
163
149
444
791
1022
1023
1023
798
464
276
164
141
429
782
1021
1023
1023
806
469
279
166
135
415
775
1023
1023
1023
812
473
281
168
128
399
762
1020
1023
1023
813
473
281
168
120
377
744
1012
1023
1023
815
475
282
168
114
355
723
999
1023
1023
809
472
280
167
109
339
708
989
1023
1023
801
467
278
166
106
325
692
975
1023
1023
789
460
274
163
102
309
673
958
1023
1023
770
449
267
159
97
284
639
921
1023
1023
725
424
252
150
90
252
597
881
1023
1023
711
416
247
147
89
268
622
913
1023
1023
751
438
260
155
97
311
683
977
1023
1023
793
463
275
164
107
346
730
1023
1023
1023
834
486
289
173
119
380
776
1023
1023
1023
881
514
306
183
131
409
811
1023
1023
1023
903
527
313
187
138
428
834
1023
1023
1023
920
537
319
191
145
445
854
1023
1023
1023
932
544
324
194
153
464
877
1023
1023
1023
960
560
333
200
174
520
950
1023
1023
1023
1023
609
363
218
206
581
1019
1023
1023
1023
1023
635
378
227
209
572
1003
1023
1023
1023
1023
602
359
215
177
498
905
1023
1023
1023
902
528
315
188
133
387
754
1023
1023
1023
774
453
270
161
121
399
783
1023
1023
1023
811
474
282
169
133
422
806
1023
1023
1023
833
487
290
173
154
469
854
1023
1023
1023
843
493
294
175
169
500
884
1023
1023
1023
880
514
306
183
209
567
948
1023
1023
1023
912
532
317
190
228
586
954
1023
1023
1023
895
523
311
186
231
588
950
1023
1023
1023
901
526
313
187
261
625
976
1023
1023
1023
884
517
308
184
257
611
949
1023
1023
1023
838
489
292
174
240
580
902
1023
1023
1023
759
445
265
158
191
494
793
971
1023
950
632
371
221
132
137
410
708
896
973
909
608
356
212
126
148
432
726
908
978
908
606
356
211
126
132
386
658
829
899
837
554
325
193
115
131
391
665
836
907
850
578
339
201
120
212
513
777
925
970
894
626
367
218
151
311
573
740
775
724
609
403
237
141
165
378
636
805
870
861
776
567
335
199
178
326
507
601
602
546
433
262
154
92
63
186
389
520
551
506
394
233
137
82
61
187
373
480
500
466
377
229
135
80
143
350
557
659
665
616
512
331
195
119
200
416
625
724
719
656
543
354
209
128
204
412
608
695
683
613
489
303
179
106
150
332
508
578
556
488
379
228
134
80
108
280
457
536
524
461
349
206
121
72
96
268
446
525
511
446
334
197
116
72
165
369
538
592
554
466
336
197
116
70
139
325
478
518
472
386
265
155
91
55
77
237
405
473
448
376
260
152
90
61
163
359
525
579
534
445
334
203
120
130
304
532
695
735
681
582
448
286
184
232
431
663
808
824
750
636
483
303
191
233
419
636
794
848
818
748
644
508
432
508
728
957
1023
1023
1015
896
759
624
579
689
905
1023
1023
1023
1023
891
752
615
563
662
860
1023
1023
994
853
712
580
468
453
591
837
1023
1023
1023
1023
932
770
626
579
684
901
1023
1023
1023
1023
1015
908
803
777
897
1023
1023
1023
1023
1023
1023
1023
1023
1023
1023
1023
1023
1023
1023
1023
1023
1023
1023
1023
1023
1023
1023
1023
1023
1023
1023
1023
1023
1023
1023
1023
1023
1023
1023
1023
1023
1023
1023
1023
1023
1023
1023
1023
1023
1023
1023
1023
1023
1023
1023
1023
1023
1023
1023
1023
1023
1023
1023
1023
1023
1023
1023
1023
1023
1023
1023
1023
1023
1021
708
737
1023
1023
1023
1023
1023
1023
1023
788
471
456
782
1023
1023
1023
1023
1023
1023
647
387
292
560
979
1023
1023
1023
1023
930
547
327
212
418
815
1023
1023
1023
1023
786
463
277
168
312
676
978
1023
1023
1023
663
391
233
140
242
567
843
989
1019
882
546
322
192
115
193
474
710
826
837
703
424
250
149
89
155
391
578
657
645
514
304
179
106
64
120
312
451
492
457
334
194
120
133
174
275
355
352
282
180
105
63
166
569
490
289
169
100
60
37
23
15
154
692
491
286
169
100
60
37
23
15
152
758
598
347
205
122
73
45
27
17
261
854
843
485
287
170
102
62
38
24
378
922
1023
622
366
218
130
78
48
30
495
992
1023
781
457
272
163
98
60
45
611
1023
1023
840
491
293
175
105
64
89
703
1023
1023
850
497
297
177
107
65
108
728
1023
1023
854
499
298
178
107
65
96
713
1023
1023
857
501
299
179
108
65
94
710
1023
1023
860
503
300
179
108
66
101
720
1023
1023
861
504
301
180
108
66
120
742
1023
1023
863
505
301
180
108
66
133
756
1023
1023
867
507
302
181
109
66
153
775
1023
1023
867
507
303
181
109
66
176
796
1023
1023
872
510
304
182
110
67
41
26
16
11
7
5
4
3
2
2
2
1
1
1
1
1
1
1
1
1
1
1
1
1
1
1
1
1
1
1
1
1
1
1
1
1
1
1
1
1
1
1
1
1
1
1
1
1
1
1
1
1
1
0
1
1
0
1
1
1
1
1
1
1
1
1
1
1
1
1
0
0
1
1
1
1
1
0
1
1
1
1
1
3
11
6
4
2
2
1
1
1
1
1
1
1
1
1
1
1
1
1
1
1
1
1
1
1
1
1
1
1
1
1
1
1
1
1
0
1
1
1
0
1
1
1
1
1
1
1
1
0
1
1
1
1
0
1
1
1
0
1
1
1
1
1
5
79
207
345
463
564
641
663
626
527
365
216
128
77
47
29
18
11
7
5
3
2
2
1
1
1
1
1
4
60
137
219
317
426
538
645
730
806
877
925
981
1023
1023
1023
1016
1023
1023
1023
1023
1023
1023
1023
1023
1023
1023
1023
1023
1023
1022
992
961
938
911
868
813
768
743
728
704
679
656
628
593
547
501
461
416
376
348
333
340
363
394
417
425
442
480
518
538
540
535
530
529
529
532
551
580
621
667
675
660
654
662
666
669
695
729
739
737
725
714
712
711
708
709
711
715
731
758
768
757
747
756
772
786
794
800
819
844
861
877
894
908
907
899
902
902
897
895
907
919
920
914
892
856
825
812
800
779
755
740
732
714
678
631
596
581
579
576
573
578
584
576
560
547
554
590
631
654
638
615
608
612
605
587
553
497
429
343
232
139
84
52
32
20
13
9
6
4
3
2
2
2
1
1
1
1
1
1
1
1
1
1
1
1
1
1
1
1
1
1
1
13
50
100
157
210
256
292
340
395
438
470
486
500
527
583
632
678
723
760
789
815
825
838
873
920
967
1011
1023
1023
1023
1023
1023
1023
1023
1023
1023
1023
1023
1023
1023
1023
1023
1023
1023
1023
1023
1023
1023
1023
1023
1023
1023
1023
1023
1023
1023
1023
1023
1023
1023
1023
1023
1023
1023
1023
1023
1023
1023
1023
1023
1023
1023
1023
1023
1023
1023
1023
1023
1023
1023
1023
1023
1023
1023
1023
1023
1023
1023
1023
1023
1023
1023
1023
1023
1023
1023
1023
1023
1023
1023
1023
1023
1023
1023
1023
1023
1023
1023
1023
1023
1023
1023
1023
1023
1023
1023
1023
1023
1023
1023
1023
1023
1023
1023
1023
1023
1023
1023
1023
1023
1023
1023
1023
1023
1023
1023
1023
1023
1023
1023
1023
1023
1023
1023
1023
1023
1023
1023
1023
1023
1023
1023
1023
1023
1023
1023
1023
1023
1023
1023
1023
1023
1023
1023
1023
1023
1023
1023
1023
1023
1023
1023
1023
1023
1023
1023
1023
1023
1023
1023
1023
994
956
927
910
903
892
875
872
865
859
844
821
812
820
833
839
844
853
863
863
836
786
753
749
756
773
786
795
798
777
750
735
736
744
751
763
776
789
803
821
840
868
915
960
1002
1023
1023
1023
1022
1013
1002
990
990
1003
1023
1023
1023
1023
1023
1023
1023
1023
1023
1023
1023
1023
1023
1023
1023
1023
1023
1023
1023
1023
1023
1023
1023
1023
1023
1023
1023
1023
1023
1023
1023
1023
1023
1023
1023
1023
1023
1023
1023
1023
1023
1023
1023
1023
1023
1023
1023
1023
1023
1023
1023
1023
1023
1023
1023
1023
1023
1023
1023
1023
1023
1023
1023
1023
1023
1023
1023
1023
1023
1023
1023
1023
1023
1023
1023
1023
1023
1023
1023
1023
1023
1023
1023
1023
1023
1023
1023
1023
1023
1023
1023
1023
1023
1023
1023
1023
1023
1023
1023
1023
1023
1023
1023
1023
1023
1023
1023
1023
1023
1023
1023
1023
1023
1023
1023
1023
1023
1023
1023
1023
1023
1023
1023
1023
1023
1023
1023
1023
1023
1023
1023
1023
1023
1023
1023
1023
1023
1023
1023
1023
1023
1023
1023
1023
1023
1023
1023
1023
1023
1023
1023
1023
1023
1023
1023
1023
1023
1023
1023
1023
1023
1023
1023
1023
1023
1023
1023
1023
1023
1023
1023
1023
1023
1023
1023
1023
1023
1023
1023
1023
1023
1023
1023
1023
1023
1023
1023
1023
1023
1023
1023
1023
1023
1023
1023
1023
1023
1023
1023
1023
1023
1023
1023
1023
1023
1023
1023
1015
995
993
995
1004
1017
1016
1008
996
966
932
905
911
930
939
931
917
902
889
873
858
858
856
861
852
822
799
792
791
776
765
768
775
785
808
816
799
770
733
684
643
653
697
750
783
790
793
810
826
819
801
797
809
822
829
828
816
810
812
800
778
761
764
771
769
757
755
748
745
730
714
699
714
729
728
711
680
655
635
614
597
595
608
605
613
623
609
597
587
564
540
534
549
570
575
555
540
556
581
582
554
518
494
493
499
507
516
510
484
452
431
431
460
494
512
510
513
521
515
486
451
432
446
491
537
552
547
533
534
537
537
541
544
546
522
497
471
457
449
443
443
458
500
543
564
571
568
561
555
523
486
477
509
542
555
548
522
494
467
438
419
408
422
444
456
452
440
409
376
344
321
317
340
361
364
354
350
339
322
299
270
258
281
289
282
274
273
290
313
310
268
233
223
220
235
267
269
254
238
215
195
193
208
240
265
274
270
258
249
235
228
240
263
293
321
331
322
308
304
292
271
269
292
335
363
361
355
361
370
355
311
283
299
338
378
394
387
373
360
350
338
342
363
389
420
421
388
357
339
311
283
273
291
318
332
347
368
368
342
303
281
282
300
328
340
341
335
338
340
319
292
280
286
302
310
313
321
327
316
308
305
311
324
343
367
379
383
377
359
326
301
298
313
331
349
353
350
351
358
352
332
314
311
325
336
337
338
349
347
329
317
319
341
368
389
401
398
375
343
313
302
315
334
366
393
409
420
404
388
362
345
348
370
396
407
395
377
365
360
346
323
327
349
362
364
342
319
306
281
237
202
194
208
232
248
247
247
252
247
229
225
232
234
236
236
220
208
212
215
201
185
197
244
310
379
436
487
532
551
545
542
547
555
551
517
454
370
285
218
163
130
106
106
139
162
164
173
195
191
175
156
148
178
199
190
183
178
172
159
139
137
157
194
220
228
226
213
189
171
157
146
153
184
220
245
248
249
262
260
235
237
262
293
307
286
252
227
219
216
211
196
206
241
277
299
307
296
283
266
253
244
245
281
320
347
361
364
363
347
313
306
327
364
394
406
405
396
381
362
338
330
355
380
424
473
520
559
596
622
629
635
654
674
691
696
686
672
655
642
638
633
626
635
641
635
627
624
611
586
555
540
545
561
568
562
556
543
536
540
525
508
511
530
529
518
497
478
454
428
400
390
394
416
457
478
471
450
417
362
307
274
273
294
295
293
298
291
270
247
229
206
187
187
213
241
245
233
226
224
214
208
209
220
232
242
255
266
260
239
211
185
194
225
247
250
247
244
245
223
191
172
167
186
223
250
264
278
272
245
208
176
170
188
207
222
227
226
217
209
216
231
245
262
271
254
226
207
209
210
210
220
245
290
329
345
350
351
339
313
283
272
289
325
361
371
355
334
321
307
288
282
291
308
327
343
346
338
333
330
311
307
328
351
375
379
359
341
321
306
299
297
304
333
364
381
385
399
399
365
338
332
339
348
361
367
356
343
328
318
323
338
354
383
418
432
435
432
416
408
395
384
396
439
486
521
538
533
516
486
451
425
425
446
482
510
494
478
460
435
406
392
400
416
435
459
468
446
413
396
381
392
420
445
477
504
532
540
544
530
502
483
482
499
513
504
491
482
470
460
446
443
458
480
504
513
505
480
462
449
423
395
393
413
440
454
464
457
428
385
349
342
353
369
382
382
366
347
340
334
311
303
319
339
364
381
393
382
384
379
359
325
293
278
281
295
305
317
318
303
293
285
302
341
369
384
381
368
354
333
312
302
321
341
367
382
379
373
361
341
316
301
296
308
325
334
335
335
331
319
310
313
324
339
358
367
368
372
363
338
309
298
313
340
356
355
348
341
332
316
289
277
289
302
313
316
310
301
301
302
284
275
293
325
346
347
348
344
326
302
286
286
301
326
342
357
369
382
391
377
349
330
325
344
382
411
422
410
377
329
302
304
327
360
385
388
375
360
347
331
322
326
322
326
337
347
347
332
324
332
336
334
338
346
353
356
346
342
338
315
302
310
332
377
424
460
475
489
510
527
546
560
607
680
744
768
760
744
689
607
517
443
402
375
339
326
339
372
398
395
382
386
423
468
495
492
471
463
469
460
442
426
429
455
481
479
463
439
417
402
389
386
405
444
471
475
474
459
433
416
400
389
394
420
450
456
464
465
457
444
429
427
441
462
474
462
451
459
481
487
467
426
416
428
441
455
466
475
481
469
437
430
444
456
468
477
481
484
504
519
497
459
467
500
522
525
518
507
507
489
462
441
446
481
519
539
543
535
527
530
518
507
522
557
591
604
603
588
563
541
545
538
529
543
564
576
586
588
581
551
518
502
513
543
577
591
583
560
539
512
475
467
494
534
559
551
540
541
533
514
479
453
442
446
458
450
424
405
399
386
359
351
370
405
435
442
414
376
346
324
293
271
296
334
369
397
405
400
382
355
332
324
328
342
361
370
373
376
360
330
310
309
319
349
389
402
400
407
401
373
344
356
393
420
430
419
404
391
386
376
356
350
362
387
415
432
437
418
400
382
371
378
405
423
431
434
434
436
440
423
404
396
407
423
429
422
422
436
457
443
404
381
395
415
432
448
445
436
420
396
383
388
408
432
452
472
481
465
458
450
431
431
451
464
459
437
417
398
394
392
375
380
408
442
463
467
458
441
426
406
382
372
395
432
467
483
474
454
445
435
422
419
427
445
467
472
471
479
483
450
412
395
416
440
455
470
470
468
459
437
409
409
433
467
484
482
480
474
459
443
425
419
439
469
487
491
486
485
477
453
433
432
458
501
530
538
543
541
533
524
511
503
500
504
521
546
560
568
567
541
512
498
500
513
540
552
544
528
504
481
468
473
501
536
566
568
560
564
565
535
493
475
504
543
568
571
556
539
523
505
487
484
510
539
569
577
573
578
571
547
525
516
528
556
586
587
574
573
564
537
510
510
543
573
587
590
588
583
571
547
527
516
528
552
570
582
589
582
585
591
569
540
544
558
558
547
529
529
541
550
553
541
537
556
583
588
577
562
539
526
531
555
568
574
583
587
582
573
548
511
490
487
500
531
558
551
537
528
513
494
484
487
509
541
560
576
599
620
639
639
612
582
590
634
667
682
697
700
687
667
645
624
613
613
610
608
615
612
608
593
572
563
594
635
650
642
626
618
607
575
544
542
560
589
625
662
700
745
787
813
845
895
942
974
983
942
863
778
683
589
510
451
423
421
431
437
432
431
420
398
389
402
422
444
473
495
493
481
471
450
422
412
428
461
491
496
495
490
471
433
394
379
409
459
489
509
506
475
439
415
399
404
441
471
496
503
502
497
489
467
432
423
457
494
516
520
513
500
478
450
442
452
465
484
505
520
530
546
549
500
454
431
437
458
479
491
485
475
475
475
479
498
530
556
561
537
513
483
473
476
469
468
483
499
505
510
509
500
501
491
493
503
522
551
572
582
580
573
564
539
510
524
566
605
642
660
660
645
607
571
559
561
584
606
610
601
589
574
568
560
548
529
533
550
560
554
536
514
491
476
464
462
474
509
536
520
498
482
463
431
404
402
417
428
428
409
385
373
365
350
338
334
359
394
412
410
405
421
417
388
358
350
370
399
413
413
424
427
416
399
397
414
431
438
429
417
406
402
403
403
392
382
399
430
449
456
462
464
455
440
442
455
459
476
499
533
557
552
519
473
431
423
450
479
504
521
525
535
548
521
479
468
482
493
499
501
495
499
510
524
518
515
528
531
521
504
496
484
463
438
425
430
459
485
494
492
482
474
471
466
479
477
483
503
519
516
499
505
507
481
458
461
476
491
506
504
487
480
482
472
454
448
450
470
489
487
481
490
495
486
470
459
473
504
514
515
512
504
502
485
467
476
493
528
556
564
559
542
526
511
488
492
522
538
538
525
519
519
517
519
515
510
509
521
540
547
545
539
524
495
474
480
508
537
551
534
501
493
492
483
483
494
512
525
531
528
519
514
498
462
437
454
495
525
543
536
524
525
510
483
479
486
507
534
545
548
543
532
519
492
471
473
497
524
529
510
505
519
527
521
498
488
502
526
528
513
502
512
519
512
505
504
513
522
536
535
530
532
519
493
474
479
509
527
534
528
526
524
517
494
474
480
501
534
564
583
583
569
541
514
503
513
533
561
565
548
538
536
526
508
487
486
516
536
534
538
545
548
544
515
484
471
495
536
568
571
555
530
519
509
514
531
561
597
608
610
604
598
585
562
539
526
548
570
576
561
530
509
494
483
475
481
511
545
568
556
527
505
493
487
481
498
525
548
558
550
530
515
496
479
489
548
632
708
760
800
841
862
871
861
818
777
756
728
659
582
527
480
436
400
370
371
394
409
415
442
473
486
475
450
440
437
445
471
477
467
455
443
435
420
409
422
449
473
485
488
483
479
477
469
458
453
470
497
505
487
454
439
445
444
433
435
457
492
516
522
520
512
501
485
477
484
506
523
543
554
544
526
510
497
503
532
569
598
595
564
531
508
497
484
473
489
508
534
547
553
555
546
531
512
500
508
523
551
585
600
597
577
547
523
518
539
568
590
595
603
612
603
573
545
533
536
557
576
590
587
563
556
572
576
584
597
609
622
617
604
602
619
617
593
573
571
593
638
674
690
688
669
641
607
575
566
576
600
629
639
617
566
521
492
480
491
510
549
574
584
580
564
546
535
530
529
537
555
556
549
554
564
560
536
522
537
559
588
611
624
635
630
605
582
581
597
619
634
628
628
650
666
653
614
577
582
606
629
646
645
637
627
619
601
574
561
574
586
592
602
597
579
553
530
517
520
550
581
586
566
522
499
488
478
472
486
521
554
562
551
540
521
491
469
471
494
521
544
546
528
508
498
487
479
474
469
493
522
519
509
505
496
481
474
469
455
465
484
491
478
468
466
460
447
433
438
474
495
502
508
502
495
495
490
482
477
489
522
538
527
508
494
476
449
427
421
441
470
492
504
503
471
443
415
396
407
437
463
470
463
457
453
440
414
404
422
445
465
480
479
481
473
456
439
432
443
474
502
497
476
472
474
457
438
428
444
469
472
470
479
469
435
404
388
384
401
425
442
449
447
453
457
440
402
394
412
454
483
490
491
496
490
466
454
456
449
451
452
445
435
430
430
433
420
415
431
457
475
481
485
485
462
435
421
417
431
457
479
491
484
482
481
470
429
417
446
488
531
537
514
492
481
490
492
489
496
501
500
496
479
462
446
438
427
416
437
466
489
495
492
491
489
476
456
446
458
479
494
492
482
484
484
487
492
486
487
497
507
517
521
514
497
479
456
465
492
521
541
541
513
485
470
465
469
472
474
491
508
524
544
552
541
509
480
473
494
524
544
559
560
544
529
509
492
474
496
539
578
597
584
562
532
498
463
446
455
474
489
492
484
486
485
468
446
438
456
487
505
509
521
524
531
521
487
479
506
566
633
695
754
806
851
861
835
809
789
761
722
652
578
525
482
443
419
401
401
412
416
412
428
439
430
414
392
383
401
440
468
484
479
463
455
443
426
422
440
471
494
499
491
491
504
513
486
475
484
496
494
487
494
502
491
476
468
468
486
511
528
536
538
538
537
526
502
486
494
527
559
559
546
537
534
520
508
506
500
512
540
555
555
556
545
528
520
525
531
548
560
557
556
567
576
570
537
508
516
558
596
611
605
588
590
597
591
573
578
604
630
635
615
589
572
562
558
556
568
592
594
602
620
616
606
593
584
584
603
634
647
638
627
620
623
620
604
582
568
572
580
581
583
578
565
556
536
524
547
574
576
551
511
473
455
442
435
440
451
461
472
488
480
455
438
424
407
387
394
419
447
458
448
430
420
403
384
384
398
421
450
457
444
424
407
396
383
368
381
413
435
446
458
466
451
437
444
448
455
469
481
476
472
481
493
489
476
455
463
474
480
479
487
496
501
492
484
494
506
519
541
549
542
517
485
464
454
468
496
519
536
544
541
539
522
506
498
488
495
522
545
557
548
526
507
497
487
478
488
507
521
529
532
528
534
538
523
513
513
505
516
534
519
497
491
479
464
469
472
498
542
552
538
520
504
503
502
501
515
517
519
527
534
538
554
550
538
524
525
551
571
569
562
558
546
520
513
522
539
565
578
565
557
550
536
519
505
491
503
530
552
578
592
601
596
584
571
557
560
578
589
594
598
590
573
563
555
544
551
565
567
562
572
573
567
558
548
546
556
581
601
600
588
569
547
513
490
487
509
544
562
559
546
546
554
544
530
512
510
526
546
557
567
575
574
564
547
528
523
526
532
532
529
540
537
520
502
515
562
612
635
643
650
649
634
600
561
552
575
608
625
634
644
627
600
573
550
551
566
575
580
582
584
579
571
548
524
521
550
577
600
601
586
582
574
545
516
514
531
540
553
567
570
541
519
495
485
494
505
525
548
568
560
544
538
527
504
494
510
531
549
558
564
577
581
562
538
528
526
537
550
547
536
541
547
545
536
536
547
564
575
582
599
606
583
556
540
547
565
575
584
590
585
570
547
515
493
496
520
554
574
568
555
548
552
546
526
514
518
532
542
544
547
542
538
523
495
475
478
508
541
525
501
497
484
458
452
478
541
619
685
736
783
817
845
850
842
818
784
747
710
662
597
536
477
418
372
357
372
388
403
414
430
436
423
398
392
414
453
478
482
488
484
470
460
450
442
433
437
458
482
496
492
481
473
465
446
440
444
449
463
464
462
456
438
420
417
434
460
475
485
493
484
472
473
475
475
474
481
487
486
480
469
472
476
458
443
447
463
492
518
528
527
530
530
509
470
448
462
484
500
508
510
516
511
492
478
473
497
513
528
547
557
548
516
489
483
502
529
544
559
561
566
577
579
569
570
581
572
562
570
575
577
568
564
556
553
561
586
608
626
638
634
604
583
578
574
559
547
547
564
580
581
572
564
549
516
514
530
545
543
514
487
467
457
438
425
424
426
431
442
436
420
410
402
386
366
358
376
397
416
415
399
394
404
413
416
406
404
411
404
395
385
388
412
419
405
380
356
348
359
373
403
420
426
410
390
390
399
409
421
433
441
450
447
434
413
403
416
449
477
492
500
474
446
418
403
417
448
470
477
466
447
438
436
435
432
435
455
483
502
501
490
474
459
442
451
477
500
532
563
553
517
480
464
456
446
460
495
512
510
512
521
515
503
475
449
447
453
472
498
518
520
509
496
483
471
473
486
501
502
482
472
488
507
519
508
495
509
516
510
498
483
463
456
459
480
496
497
498
502
505
504
501
495
483
474
480
496
519
535
543
546
534
526
528
513
499
494
488
482
483
490
493
491
484
478
490
517
533
529
527
527
529
525
504
483
477
490
515
528
520
501
496
504
506
510
515
521
526
519
513
504
492
492
480
462
467
480
493
504
518
528
525
531
540
535
525
530
540
534
514
493
477
483
492
487
479
485
500
513
507
494
477
459
447
444
447
462
489
505
508
509
517
507
489
487
499
523
542
554
554
540
530
540
543
521
503
505
515
546
553
537
528
518
494
474
472
482
497
510
518
522
527
527
515
488
482
503
528
550
546
537
539
529
506
495
500
518
547
582
592
575
547
525
506
507
525
538
555
561
558
556
561
556
538
536
544
539
535
533
531
535
538
524
513
516
522
523
531
551
561
566
573
561
509
464
456
476
502
515
526
527
511
489
469
461
472
489
508
515
497
487
491
495
482
465
472
518
596
664
710
743
764
790
807
818
824
807
771
721
661
603
551
494
425
369
347
361
388
408
419
403
379
368
366
389
421
445
467
479
490
494
489
466
433
419
427
448
469
481
496
502
499
480
457
437
430
442
467
485
486
490
489
477
456
433
429
452
484
518
526
508
489
471
456
462
475
492
508
517
515
514
510
505
498
487
492
528
573
599
606
595
558
512
482
472
481
498
516
533
549
557
554
546
534
527
533
555
584
584
573
564
552
541
531
528
543
571
589
596
584
580
591
590
576
562
557
571
595
611
627
620
596
582
585
588
593
603
615
614
600
581
567
555
551
555
553
553
552
554
559
554
543
534
520
510
515
513
515
516
506
489
477
480
476
465
450
452
469
483
497
516
519
482
423
386
380
373
371
377
373
372
376
374
365
366
376
386
398
417
420
424
432
435
430
415
411
415
424
430
434
450
458
455
445
432
427
426
437
460
469
464
457
454
452
452
459
463
458
446
444
447
445
436
430
435
443
460
480
500
504
498
492
487
472
455
468
490
505
513
508
494
478
468
462
471
490
505
507
502
487
483
497
494
483
468
460
452
460
475
494
514
514
506
497
486
477
473
481
496
502
501
487
480
468
459
475
495
512
518
511
509
502
494
494
494
498
515
509
493
481
475
477
490
502
497
492
495
504
504
503
494
492
481
458
442
437
445
468
490
503
506
510
509
492
477
472
486
507
519
535
544
531
514
490
480
478
474
493
523
539
537
515
491
475
472
484
502
512
523
517
510
525
522
501
496
503
518
537
545
549
552
545
514
493
494
507
512
513
514
527
538
526
507
482
461
463
492
532
534
515
505
506
513
505
493
478
479
483
491
495
495
491
481
467
478
505
525
549
568
560
552
542
536
534
519
516
505
494
500
515
509
505
494
482
480
492
522
543
540
541
542
531
507
487
476
485
506
534
547
540
535
538
528
503
482
491
518
543
547
544
542
540
532
519
503
508
518
519
518
521
524
516
495
482
483
474
476
495
509
509
512
511
497
479
469
472
494
514
524
528
525
505
498
481
479
496
521
544
553
547
527
496
479
482
492
498
514
530
529
525
529
545
527
487
462
463
486
525
546
543
533
523
528
527
508
501
525
554
561
544
516
492
479
477
477
491
525
535
526
511
502
489
476
455
426
422
434
457
475
480
475
470
470
480
509
559
617
684
741
793
830
847
834
799
757
716
685
648
611
568
519
469
431
399
383
379
400
443
461
468
465
447
420
397
380
376
385
407
428
444
457
468
452
424
412
415
431
454
468
473
473
473
460
443
444
457
480
496
490
480
482
483
473
476
485
480
473
479
482
474
475
475
459
449
450
472
506
538
548
544
532
499
464
443
442
460
490
519
540
556
562
561
552
533
523
521
521
522
523
525
518
512
500
489
488
510
552
589
592
581
580
579
567
540
527
537
589
617
606
594
595
601
588
566
553
559
583
613
626
638
641
631
607
575
558
561
580
607
611
594
584
583
582
583
591
614
633
634
618
579
565
576
572
544
515
507
526
556
559
551
547
527
495
469
459
456
455
462
457
444
437
435
424
413
395
388
397
421
438
436
431
437
437
433
430
431
432
423
405
396
390
387
388
386
396
418
435
432
418
409
419
429
432
430
436
453
475
471
441
422
430
440
435
422
415
429
443
461
472
473
466
460
456
459
463
466
469
478
480
487
502
507
499
476
470
483
499
530
545
539
520
497
478
463
463
481
513
541
544
541
530
518
490
461
463
489
514
528
545
556
552
544
513
476
476
502
535
553
544
531
523
523
514
507
521
552
573
563
541
518
495
485
478
487
505
523
536
544
546
551
555
547
515
481
471
482
501
523
534
536
538
534
530
538
534
540
555
563
559
544
529
514
501
489
465
458
464
486
514
537
539
539
529
521
527
530
541
553
550
549
544
527
507
485
472
484
503
518
539
552
546
529
509
494
498
507
518
533
548
570
570
551
533
515
500
506
525
541
540
528
518
510
497
490
503
530
555
569
566
553
539
531
502
482
481
496
513
527
542
542
538
539
516
502
509
536
562
573
575
573
545
521
531
543
543
556
568
574
561
536
515
505
498
493
497
516
548
566
569
565
551
541
520
493
485
479
498
528
538
541
542
553
559
539
509
503
524
548
548
538
533
535
532
527
520
528
538
546
554
557
559
558
544
534
531
542
554
563
556
548
549
547
541
520
499
492
499
509
522
527
534
542
534
513
506
522
540
566
599
621
605
573
547
538
546
563
579
601
599
585
583
581
571
563
572
587
587
576
572
568
563
554
535
530
530
527
540
559
562
551
534
517
509
496
491
502
518
529
532
532
520
517
512
506
503
501
504
510
506
498
501
510
505
459
446
478
510
538
564
593
624
669
728
783
834
873
891
867
805
731
669
609
531
461
417
400
391
391
396
403
399
405
407
406
415
430
454
480
486
478
469
465
447
420
422
432
450
458
454
445
440
449
453
454
462
481
484
470
452
432
425
432
431
420
413
425
444
470
482
478
479
478
466
456
456
472
496
505
510
503
486
481
485
477
477
489
498
508
511
507
497
486
481
486
493
485
487
499
500
504
512
513
503
481
476
488
502
516
519
532
543
545
531
518
528
549
569
571
568
564
576
585
575
543
519
530
549
562
570
574
568
565
566
569
570
588
607
608
589
573
575
577
564
556
556
569
592
607
605
600
601
598
571
547
560
576
572
550
540
544
517
479
442
420
423
435
452
459
462
456
442
424
399
383
373
369
376
385
395
403
402
394
382
364
352
362
393
408
409
406
398
385
380
384
392
423
453
462
451
432
413
397
393
397
400
419
450
458
452
425
411
419
414
402
401
420
441
448
447
445
448
441
421
422
433
440
444
452
454
453
456
465
463
455
461
461
468
479
492
495
485
479
466
447
451
464
477
486
489
496
503
504
493
475
463
470
489
521
541
544
532
506
480
457
455
480
499
515
520
516
514
509
502
506
516
510
512
512
506
506
522
533
516
489
481
484
491
498
499
495
494
499
498
496
509
524
537
547
545
542
542
548
565
568
556
552
548
539
520
504
495
481
467
475
499
525
544
561
572
564
556
540
513
494
494
508
532
551
545
521
507
500
485
477
487
517
555
575
584
591
592
576
543
523
527
535
528
524
517
513
507
499
496
492
500
517
530
541
549
542
539
526
495
478
498
530
547
549
546
548
554
549
542
529
509
504
512
535
540
526
507
496
476
467
493
521
531
524
515
516
521
519
509
501
508
522
527
536
548
564
576
566
537
518
513
530
543
547
538
530
540
541
525
505
512
528
531
526
529
542
544
537
528
527
526
538
559
570
564
545
531
524
517
513
509
516
528
548
567
574
578
575
551
537
550
558
566
579
574
560
552
548
540
533
537
570
605
605
596
590
574
550
532
519
509
521
554
573
568
551
541
537
528
523
519
525
538
550
551
547
552
559
556
548
536
539
550
579
580
568
553
544
525
511
526
555
565
559
540
516
498
481
471
469
479
502
528
545
534
525
525
516
497
489
504
539
572
602
631
656
691
731
763
805
860
912
941
931
895
841
773
695
613
552
508
481
465
447
422
414
425
432
431
430
429
442
471
487
484
483
487
496
489
478
474
492
509
514
510
507
500
479
470
482
493
501
517
527
522
507
506
512
506
498
497
512
524
526
520
525
530
533
525
493
480
499
526
533
522
519
524
521
511
505
504
518
534
535
527
530
548
563
552
524
517
531
552
560
553
552
547
537
523
499
499
525
549
561
570
570
566
565
548
535
522
532
549
559
548
532
521
515
506
520
533
560
589
597
591
575
556
538
534
538
539
557
595
631
632
618
600
585
569
565
567
563
558
559
553
545
531
520
521
523
521
538
552
550
545
531
518
503
479
455
442
443
446
448
439
421
409
411
414
412
404
408
430
458
471
469
445
408
385
376
372
364
364
369
379
399
406
395
376
358
360
382
410
434
448
453
446
419
391
375
377
392
406
422
438
451
446
432
420
409
414
431
456
473
461
433
417
415
413
402
414
437
457
454
436
434
452
463
468
459
452
470
487
488
472
456
450
459
462
445
440
455
471
492
494
475
454
444
444
440
438
447
458
464
476
485
476
466
456
447
456
468
478
485
481
466
472
495
491
479
474
471
463
467
478
492
505
503
481
464
467
491
529
548
553
538
500
466
443
436
438
448
473
492
498
500
494
479
462
461
476
485
484
477
476
472
476
500
513
502
503
532
551
558
544
538
546
541
522
511
523
526
508
485
461
458
464
474
484
486
499
519
530
535
549
548
541
536
525
509
500
499
519
539
538
528
518
523
517
510
522
538
550
554
546
536
525
514
496
489
500
520
545
563
562
535
514
507
495
512
523
525
519
512
519
514
505
512
511
502
497
502
507
516
521
510
501
502
496
480
475
485
500
502
494
495
497
489
472
460
476
498
515
525
533
529
510
501
491
475
479
500
513
517
506
496
503
510
504
499
510
533
549
546
536
530
519
501
485
489
498
509
522
535
552
567
565
569
552
511
478
477
497
511
515
511
510
508
500
489
479
474
487
517
543
555
559
559
547
543
554
558
559
557
555
537
524
517
511
516
533
558
580
598
605
580
556
527
499
488
491
508
530
545
552
551
558
564
559
541
539
549
553
559
560
568
577
556
526
507
513
528
537
537
530
531
534
515
498
495
504
518
535
545
538
534
526
515
510
509
507
510
519
531
548
577
630
691
747
804
866
907
909
883
837
777
727
667
578
490
445
433
436
446
456
473
475
462
452
450
452
461
473
481
470
460
464
463
452
449
448
452
471
481
475
463
462
465
456
440
433
442
457
465
462
450
445
437
426
431
447
463
482
483
480
482
484
492
491
475
468
483
508
526
511
480
462
448
432
431
447
482
521
539
555
581
579
544
498
469
469
490
505
508
511
527
525
508
497
488
497
511
538
565
583
578
561
529
512
515
523
537
552
551
542
554
572
576
578
581
580
577
587
595
599
596
587
583
574
560
562
575
591
610
620
613
615
602
575
558
567
577
579
576
581
589
585
581
576
570
563
573
584
574
554
538
517
507
480
446
443
479
510
506
478
453
435
428
425
428
435
443
443
426
405
393
387
390
400
405
398
399
403
393
382
365
364
371
351
341
368
394
408
414
419
415
410
402
388
390
403
424
447
460
467
460
451
440
425
426
432
445
462
468
458
444
434
437
443
442
440
452
459
455
435
433
439
435
435
436
450
486
503
488
479
470
468
458
432
423
436
459
481
495
498
495
493
478
464
457
461
474
485
478
477
498
516
518
513
505
488
482
494
504
498
489
485
464
437
439
460
485
511
526
520
511
500
487
464
449
451
473
499
518
514
504
496
472
464
466
474
509
540
561
562
534
518
505
480
464
469
493
515
517
516
502
481
458
439
444
465
494
514
523
526
516
506
513
499
492
500
516
520
517
510
493
499
503
487
470
471
476
499
522
523
510
491
467
453
451
461
488
508
509
502
500
501
491
477
480
502
532
551
545
531
522
512
499
486
481
490
501
515
520
510
497
498
489
475
476
498
519
526
516
516
530
528
521
501
487
498
523
524
518
514
510
520
517
498
492
488
488
496
511
513
509
514
514
505
485
484
504
519
529
520
513
514
503
491
497
529
569
603
617
594
559
534
500
463
453
478
506
522
532
535
526
511
499
493
496
494
496
504
515
532
537
521
515
525
515
511
525
546
563
545
525
512
491
467
447
451
481
519
545
555
556
556
551
542
521
505
503
522
539
533
532
539
538
525
518
534
563
582
568
546
535
531
530
528
527
537
551
555
552
547
552
543
512
476
455
469
495
509
518
522
520
506
485
464
456
457
471
489
502
511
521
526
530
543
573
620
694
782
844
870
878
875
842
786
726
680
649
622
597
565
527
461
430
420
398
391
399
404
416
428
447
462
461
456
456
465
473
477
473
475
475
473
461
452
460
473
491
501
499
493
478
472
480
489
490
496
507
523
523
504
496
487
475
467
478
496
516
526
522
518
502
485
474
476
483
503
522
544
557
549
536
532
527
509
496
501
518
535
532
525
529
535
534
528
529
546
562
564
548
528
526
529
522
514
526
547
562
565
566
577
584
575
560
553
556
563
581
591
601
608
599
595
590
581
574
595
619
628
610
582
566
578
600
609
612
618
630
642
647
639
627
622
624
612
583
562
572
588
590
568
541
540
532
530
545
566
580
570
543
512
480
459
443
429
430
433
441
438
427
420
418
417
411
401
395
399
408
415
425
430
422
408
391
370
356
356
383
421
442
440
432
422
418
410
398
403
421
435
425
416
423
409
393
389
399
420
437
452
463
458
441
425
423
425
419
415
421
427
430
431
432
432
425
423
426
435
456
476
472
460
464
480
480
464
463
475
483
489
501
508
509
504
498
485
480
477
484
508
510
496
471
454
446
441
442
451
473
499
508
497
490
491
487
489
502
505
517
525
513
494
478
470
465
468
483
502
513
516
519
516
501
494
503
527
546
543
539
531
498
474
471
479
482
483
481
489
509
520
515
507
497
491
478
469
469
479
499
531
554
558
545
532
495
467
473
488
496
498
505
513
520
532
546
554
542
530
515
513
518
515
507
505
495
470
473
489
504
516
510
508
505
492
491
509
526
531
531
512
477
472
484
502
505
494
487
502
516
512
503
501
507
508
501
493
487
500
515
526
528
516
503
505
514
504
490
490
509
523
529
535
533
520
500
484
498
527
532
528
518
505
505
512
514
506
501
514
542
558
540
517
507
502
494
492
501
516
523
538
559
554
541
528
509
492
499
513
519
528
521
499
485
491
511
523
519
515
517
526
532
543
550
546
525
509
514
526
537
545
546
543
541
539
517
498
503
524
548
563
555
543
529
519
519
527
529
524
531
542
541
536
529
514
494
492
506
520
525
533
525
513
500
491
486
472
472
489
509
518
528
535
529
513
492
485
502
540
584
641
703
755
803
840
856
856
840
825
813
781
728
660
583
503
435
390
368
366
393
443
464
454
449
461
468
463
461
459
459
471
471
469
471
462
444
432
446
471
495
509
504
490
474
467
467
465
465
475
495
508
501
485
473
469
461
458
474
491
502
510
525
526
517
510
495
487
507
535
541
532
527
522
516
516
514
510
506
501
498
520
542
540
526
494
463
459
470
496
526
537
532
530
525
526
532
535
543
561
578
587
584
588
600
613
602
573
556
565
581
591
590
592
595
601
586
567
564
557
564
578
589
601
605
605
598
590
603
630
655
655
636
609
587
591
601
582
571
572
583
599
602
590
580
580
574
562
559
565
567
566
556
541
519
472
435
435
451
473
486
487
483
478
487
493
480
460
444
435
431
424
422
425
425
408
390
380
384
409
440
457
448
429
430
429
418
401
398
419
438
447
449
443
427
412
421
446
464
481
493
491
478
469
467
466
455
438
428
437
466
498
500
504
513
506
477
462
457
469
487
494
484
471
468
468
465
461
460
472
495
511
513
507
495
476
454
442
439
455
486
520
523
524
519
508
498
490
490
504
514
519
516
513
506
494
483
476
479
488
508
540
561
555
536
523
505
491
481
479
474
476
494
509
505
497
491
487
491
501
508
520
538
542
522
495
472
466
467
478
498
513
529
540
528
497
473
465
465
475
496
515
528
525
511
497
487
485
490
505
522
526
538
549
532
525
514
499
495
505
519
540
531
515
521
525
511
487
480
501
524
537
528
517
510
505
496
479
477
491
503
504
495
488
486
489
495
486
472
471
493
522
534
534
538
520
499
484
480
500
533
556
554
529
505
490
489
492
504
524
523
501
485
489
499
504
510
516
528
543
552
548
533
520
495
477
473
474
481
497
516
521
512
505
501
502
501
488
488
501
521
532
540
539
532
526
500
478
477
482
494
509
521
520
524
534
540
527
518
526
534
546
546
542
539
537
527
510
497
506
522
528
527
535
541
535
516
510
525
546
562
570
563
549
528
505
491
479
488
515
538
544
528
524
518
500
485
476
467
472
489
502
505
504
515
496
471
473
490
521
558
592
627
666
709
760
792
810
822
832
821
797
752
684
617
565
520
467
429
410
394
384
385
392
395
404
418
419
430
452
472
485
489
485
480
464
436
421
425
439
461
474
461
446
437
439
439
435
453
469
480
489
487
477
460
458
459
451
453
471
488
499
498
493
482
472
452
448
459
483
499
503
502
503
508
508
495
486
484
499
519
531
521
509
502
495
490
512
531
553
562
558
551
552
553
535
500
475
477
498
521
548
557
554
552
544
531
525
535
552
580
598
603
591
578
567
555
550
554
572
595
616
626
623
600
564
551
553
560
577
601
626
628
613
602
608
593
562
554
583
604
600
590
582
577
577
574
561
537
516
516
523
519
510
507
513
504
491
476
473
474
469
460
449
430
412
400
402
406
416
428
431
430
423
419
415
397
393
399
399
396
408
417
417
429
433
431
414
397
401
420
433
429
423
427
430
421
404
403
421
440
457
461
463
474
470
443
427
439
456
469
468
452
438
446
450
446
442
450
475
495
497
484
479
474
471
465
457
460
462
489
530
537
524
514
501
479
459
452
471
500
522
529
536
530
491
454
441
454
474
483
488
498
505
512
517
504
491
477
475
481
494
509
511
516
526
515
487
469
476
495
521
536
532
507
485
474
470
471
495
517
521
515
510
503
484
470
477
495
509
514
509
494
486
471
444
422
407
403
421
447
472
496
507
511
507
498
483
486
499
504
500
497
498
501
498
493
484
482
489
496
505
508
517
526
518
494
477
478
488
516
536
531
507
495
516
520
498
481
485
502
517
527
540
543
530
497
472
471
489
506
523
528
517
510
510
492
473
480
510
546
569
564
543
521
511
494
490
504
533
551
557
560
552
539
528
509
499
502
526
552
557
558
552
548
540
525
524
549
573
574
548
509
494
494
493
482
471
479
500
512
522
542
551
541
527
519
512
509
517
542
555
553
556
551
537
517
512
510
523
544
541
546
539
526
523
508
496
499
517
538
541
535
533
528
517
502
492
471
478
517
550
561
560
560
562
555
539
532
540
562
574
570
553
531
519
508
501
508
521
539
547
557
563
565
556
529
492
468
469
492
501
494
497
497
482
468
467
477
498
522
532
554
601
650
700
735
766
814
868
903
902
876
839
785
716
629
555
503
472
451
425
399
388
388
388
387
396
413
438
464
474
468
467
462
452
443
446
452
459
470
488
496
501
491
475
464
463
479
499
496
495
497
487
491
495
481
467
459
475
493
495
499
512
523
533
523
494
468
466
483
503
517
527
536
533
523
504
493
506
526
533
534
546
554
541
517
486
490
538
579
589
581
563
538
526
525
520
527
547
571
568
567
580
593
576
551
542
551
556
563
578
585
587
588
593
591
580
578
585
600
618
624
616
611
624
637
628
619
627
640
639
634
642
650
638
613
605
617
642
653
636
618
602
589
569
551
537
537
555
578
582
563
547
532
524
522
521
524
525
526
520
503
490
479
468
460
453
434
421
431
443
445
453
453
444
427
408
391
382
389
410
428
436
438
427
403
388
401
438
478
500
498
478
448
422
402
401
421
442
461
468
462
456
461
473
481
486
491
498
508
504
499
503
498
483
466
460
462
464
470
477
483
493
506
493
475
469
479
500
517
518
508
499
490
486
478
476
488
510
522
515
508
518
546
556
537
513
498
500
512
511
504
513
519
512
483
455
455
485
522
545
552
548
537
519
497
465
449
458
473
490
506
519
519
510
504
503
507
518
527
524
509
496
494
496
494
480
480
507
534
553
552
542
534
517
495
486
503
530
542
534
523
524
528
523
499
484
491
506
526
543
538
525
507
488
467
451
460
492
524
540
543
539
527
510
491
473
473
487
507
518
520
524
533
530
511
504
513
523
540
553
559
567
571
543
500
478
484
491
497
508
508
505
507
503
485
477
500
529
553
545
517
500
493
496
508
514
510
531
535
523
521
522
521
506
494
490
495
515
525
534
533
529
520
502
484
485
505
527
539
546
550
558
552
534
507
485
484
502
527
539
545
547
539
531
520
496
493
514
529
537
540
527
518
516
505
498
503
515
531
538
541
556
560
546
520
492
484
496
516
540
558
561
543
532
543
559
552
536
543
550
535
512
504
504
515
527
536
548
560
556
542
524
518
509
488
473
490
516
524
538
543
528
514
503
489
486
495
518
536
540
535
526
522
538
573
612
653
701
781
856
893
904
896
865
805
736
671
604
543
491
453
425
404
406
408
399
402
421
449
472
483
476
478
491
491
480
472
471
471
469
469
464
460
454
442
438
444
462
481
495
502
497
494
497
471
444
444
466
484
500
515
511
495
484
473
477
496
525
538
537
533
527
523
507
483
471
469
475
500
520
531
530
519
512
507
500
504
528
555
559
545
521
508
510
508
507
519
522
535
543
550
570
568
554
538
537
567
602
620
614
585
567
547
531
526
522
525
536
547
558
570
586
601
605
595
585
581
598
621
638
641
635
620
591
568
560
565
588
601
603
607
596
581
574
554
539
544
563
585
591
579
564
556
545
534
520
513
504
503
516
521
508
496
477
456
439
434
438
446
455
447
427
410
398
388
393
413
434
431
406
380
377
382
382
380
378
374
384
407
424
415
398
405
428
429
421
421
435
456
471
453
438
449
465
458
447
438
436
436
444
444
437
432
435
444
445
451
479
494
479
470
466
458
449
443
446
450
461
473
487
492
494
483
468
452
442
444
460
484
500
496
492
486
484
487
478
469
458
452
456
463
471
476
471
461
452
472
507
523
532
521
502
488
476
466
456
456
470
480
480
474
480
478
459
434
428
458
484
495
501
506
505
505
503
486
476
479
504
508
510
512
498
490
480
468
469
480
502
518
520
508
506
503
498
486
475
485
507
509
507
515
524
529
521
500
480
480
484
483
483
478
465
478
482
472
493
540
568
570
560
544
520
503
491
489
498
513
519
510
498
496
503
508
509
502
499
500
523
523
520
534
531
529
523
506
498
507
519
525
530
538
542
543
543
523
495
478
481
496
519
534
539
537
508
474
459
462
481
510
522
512
512
503
500
516
524
518
528
540
549
546
539
526
506
480
467
457
460
475
487
483
487
518
534
520
494
473
476
497
508
512
512
505
491
480
481
498
516
534
547
563
564
549
535
518
501
499
530
563
572
567
551
540
527
505
492
514
541
554
555
561
563
550
525
506
515
528
533
543
553
559
558
551
536
522
516
519
538
563
578
575
566
554
536
522
529
552
566
562
558
546
524
507
500
491
490
495
509
526
528
519
509
497
489
481
470
482
502
516
523
522
538
563
563
547
557
608
693
775
829
856
863
847
809
748
683
619
572
544
502
475
465
458
442
416
401
415
435
456
475
479
481
470
462
447
430
427
436
451
452
449
451
453
466
468
464
468
481
490
491
487
477
469
469
473
484
481
475
488
499
501
508
515
507
472
451
450
474
500
508
512
519
533
533
524
516
519
529
516
492
478
475
475
481
480
473
469
483
518
555
572
564
544
520
495
483
497
524
541
540
538
547
556
557
560
560
539
532
544
562
560
549
546
540
528
530
554
594
629
645
637
611
591
585
570
559
561
577
597
605
607
603
593
598
606
606
615
633
653
660
654
639
623
598
576
568
574
577
585
587
594
585
568
542
518
493
483
491
503
500
494
486
482
477
471
459
449
452
457
464
468
447
420
399
387
386
401
418
431
438
437
436
433
415
399
378
377
397
414
409
409
425
445
445
429
405
392
407
426
433
429
412
405
407
407
414
430
454
477
487
490
494
484
455
419
403
412
435
461
478
484
476
470
465
456
454
467
498
523
525
513
497
477
457
434
423
427
450
483
493
480
461
451
444
441
442
459
487
501
509
508
500
471
449
446
454
471
490
505
510
508
494
489
493
480
466
479
496
505
508
496
480
477
473
462
465
483
497
509
512
505
505
515
517
494
468
462
462
476
486
480
475
486
487
477
465
466
483
504
516
526
535
532
503
468
454
460
479
504
525
533
528
504
478
464
467
487
521
539
530
516
499
492
495
489
480
487
513
538
538
530
518
500
479
466
466
479
494
488
488
501
509
518
519
503
493
493
499
517
526
521
506
500
502
496
487
487
504
512
499
487
491
496
500
503
499
502
509
511
520
522
517
500
491
486
498
513
528
533
534
529
522
519
514
509
504
502
510
520
516
510
506
515
513
505
501
503
506
512
509
504
506
505
504
505
503
502
519
533
539
545
548
543
517
490
486
511
548
566
557
526
502
491
482
474
469
484
504
513
509
499
499
519
527
515
512
524
546
553
550
552
561
548
510
488
482
494
518
539
541
526
526
525
513
514
536
563
586
575
541
523
516
518
510
498
495
503
517
514
516
521
519
514
519
518
503
489
487
498
511
505
505
491
472
460
458
474
499
525
537
543
556
576
603
642
700
756
814
855
882
883
867
842
790
709
626
564
532
510
475
430
402
398
397
396
402
408
414
423
439
451
459
461
464
466
452
433
444
471
479
472
471
474
467
449
439
442
462
489
501
496
493
495
486
471
456
447
467
502
521
515
500
508
509
508
503
494
495
498
491
484
480
482
483
491
507
510
516
527
523
521
540
543
526
516
506
509
527
550
559
556
544
520
512
509
512
519
527
546
569
586
593
573
549
534
543
558
574
588
593
601
605
599
585
573
577
588
602
612
614
613
615
610
597
583
567
575
597
616
619
614
609
610
608
606
611
621
646
679
678
654
636
623
602
576
559
568
591
615
627
627
606
572
556
546
537
530
522
509
509
506
498
493
491
485
480
473
473
471
466
457
459
466
456
428
416
414
427
442
442
436
435
439
420
402
401
416
442
461
454
422
394
393
407
414
412
421
436
455
457
454
458
450
445
446
435
424
438
449
462
478
479
481
486
472
460
461
478
494
511
519
508
497
484
463
458
460
468
479
488
485
485
488
485
476
474
479
503
514
493
470
463
468
479
482
476
482
496
507
516
527
528
524
517
504
493
494
512
516
503
498
498
498
489
464
452
472
510
543
555
562
542
510
485
459
444
452
476
501
517
517
505
516
529
534
516
506
509
518
515
521
518
505
485
470
473
492
520
546
555
542
530
522
500
467
460
471
485
509
538
541
527
512
498
490
499
517
514
517
532
527
507
501
513
523
534
552
560
550
527
515
522
526
504
482
480
493
519
544
565
565
545
526
511
491
475
482
506
514
509
507
510
513
498
499
503
512
530
536
538
526
501
488
486
489
491
497
521
541
539
533
533
538
529
508
499
508
520
534
536
530
530
526
519
512
510
517
519
516
504
485
479
482
482
478
485
507
517
517
514
516
523
522
527
518
497
489
492
504
510
511
515
519
523
512
506
506
507
523
536
530
524
515
508
497
498
510
530
544
542
531
533
538
521
510
504
494
496
507
523
535
532
526
519
510
505
513
530
550
564
574
572
562
557
532
506
508
516
520
520
519
517
519
516
514
516
513
514
525
540
545
542
532
510
499
491
486
500
535
571
607
638
678
718
749
794
850
881
895
891
849
799
740
658
578
531
500
479
467
456
439
425
414
414
411
410
429
456
480
491
492
486
481
481
484
488
502
530
533
525
525
518
501
479
466
456
449
462
484
496
506
506
500
490
469
459
482
527
546
529
508
497
495
498
500
497
485
477
490
504
517
524
510
487
470
460
460
479
513
536
544
531
521
519
518
512
509
512
518
530
536
529
531
528
510
507
523
543
553
568
574
553
531
533
533
536
540
538
542
547
552
545
536
548
557
546
540
553
562
564
571
582
591
593
589
597
619
641
654
657
659
648
606
577
565
557
556
570
590
600
607
606
588
569
558
546
554
579
590
582
552
524
509
496
485
475
477
496
515
504
479
460
449
441
423
419
424
445
463
457
436
416
398
382
383
388
400
402
404
407
407
410
409
405
396
391
388
400
430
439
443
441
426
404
378
361
377
406
424
423
407
399
399
408
413
420
425
426
443
452
448
445
438
436
428
427
438
453
466
484
503
513
502
476
440
422
432
450
456
453
441
442
446
445
457
458
456
477
499
517
512
497
475
451
434
424
430
455
481
493
490
484
477
469
464
467
477
492
508
527
528
510
493
470
447
437
451
467
489
504
497
495
494
488
479
466
459
472
479
470
460
451
446
446
441
456
477
492
502
499
494
490
486
478
469
467
470
480
492
499
504
500
487
474
466
461
470
491
510
506
488
470
469
473
465
456
462
477
498
504
495
482
464
446
417
418
464
513
540
546
545
520
490
476
477
492
508
518
518
511
511
512
507
494
490
499
511
512
510
527
540
533
511
494
480
478
493
512
523
522
506
492
489
484
486
498
523
542
532
516
509
507
507
503
495
490
498
521
542
547
551
545
530
510
487
481
494
524
544
552
550
538
529
517
509
510
519
533
541
536
542
542
530
516
506
521
540
540
535
524
509
509
508
498
497
506
520
525
533
549
565
575
577
548
504
481
500
529
537
541
542
533
524
519
510
510
526
551
564
566
563
559
554
549
555
551
545
554
565
562
561
566
564
538
517
518
533
552
565
569
557
534
514
502
502
487
480
497
510
512
511
506
500
497
487
479
499
528
538
532
527
520
507
505
523
554
603
670
738
793
832
855
862
844
802
750
710
674
632
581
534
481
443
413
394
390
398
419
448
467
467
462
458
450
436
425
428
446
456
458
454
453
451
441
426
424
428
437
456
472
486
494
500
488
469
465
469
472
485
488
481
484
486
475
456
444
450
478
514
518
493
472
469
470
460
456
458
464
477
487
488
488
490
488
488
490
498
536
564
563
555
548
534
518
503
499
508
520
538
551
551
545
547
539
523
507
507
538
569
589
593
577
563
549
531
532
547
565
584
582
580
578
574
562
559
580
605
621
627
627
620
622
637
635
625
617
611
616
621
617
605
601
592
584
565
552
557
573
581
582
578
578
576
559
529
512
514
518
511
511
513
498
482
466
448
447
448
452
462
464
452
452
470
463
438
418
424
437
437
429
419
416
408
396
382
375
384
401
413
425
429
433
436
430
421
410
404
415
432
442
443
444
448
439
426
416
417
452
467
466
459
455
448
438
426
419
425
440
458
469
474
470
463
457
434
426
441
465
483
491
493
493
492
477
464
466
477
487
492
486
479
472
472
460
438
442
477
514
527
533
536
525
504
477
450
440
452
484
508
502
482
468
465
465
469
475
475
480
498
519
529
529
517
505
489
475
478
490
500
508
513
503
490
467
445
447
473
499
510
512
500
498
508
512
503
497
491
506
519
519
519
528
533
518
498
498
513
534
543
535
522
497
480
473
467
475
496
515
534
544
541
527
511
489
471
472
491
512
523
533
539
527
519
503
489
498
520
534
536
536
522
504
486
473
475
484
510
531
547
556
558
554
541
524
502
491
498
515
523
525
528
530
527
515
508
507
518
541
560
564
546
529
513
503
495
500
512
522
533
542
545
540
534
527
515
504
515
533
532
520
510
506
505
491
481
482
502
531
547
555
559
562
550
531
515
505
506
512
506
500
501
497
489
488
490
495
509
523
543
557
557
552
538
517
495
482
483
498
520
533
536
522
515
505
500
500
505
516
531
550
569
574
558
531
504
492
498
515
533
545
547
542
530
503
495
498
512
540
569
582
573
559
538
517
496
491
504
537
562
548
519
500
491
477
459
467
490
513
519
507
503
502
497
487
473
465
474
494
518
548
582
620
682
734
778
820
861
886
885
847
790
734
666
584
509
468
442
425
418
421
434
434
422
418
420
413
410
430
456
466
467
470
463
450
439
439
458
480
499
506
505
502
500
491
472
464
469
484
490
481
472
467
465
474
489
489
491
504
519
516
502
491
486
494
504
498
498
506
521
526
526
524
519
514
506
507
525
537
544
554
560
555
527
507
490
489
511
529
543
547
543
552
563
570
571
561
546
554
576
588
578
562
542
535
535
541
539
532
541
573
596
607
596
583
570
560
566
590
614
626
627
618
612
605
588
584
591
612
634
651
659
644
629
624
606
578
580
584
578
578
580
579
570
550
531
516
498
499
517
523
534
537
526
505
487
469
464
474
492
492
473
454
435
412
393
384
386
396
408
412
410
411
412
396
379
368
371
383
398
412
416
419
425
422
414
404
401
407
415
411
405
412
423
424
429
435
436
432
423
418
419
420
426
425
432
436
435
448
467
473
463
462
463
454
439
433
445
442
439
442
453
451
445
447
452
451
452
463
486
503
512
509
487
471
467
469
466
470
487
493
492
483
481
481
479
476
481
493
502
499
492
484
470
457
456
461
487
518
534
523
496
483
482
482
487
505
534
551
542
525
509
509
509
505
500
495
488
491
497
505
505
506
496
472
457
460
487
508
515
516
526
530
508
482
474
478
489
520
537
526
507
500
491
477
477
487
497
511
512
503
498
501
504
496
497
502
505
499
494
494
502
517
523
512
501
507
527
550
567
561
543
524
517
515
508
506
502
499
512
532
540
546
540
518
497
496
509
530
536
538
538
530
513
493
485
478
484
503
514
520
519
516
533
539
512
484
472
474
489
500
504
501
496
493
501
514
522
535
542
537
530
531
519
502
498
510
520
516
516
533
533
518
514
509
499
494
497
515
536
540
524
499
484
485
486
485
498
521
540
557
562
562
552
525
498
487
497
513
535
536
529
522
518
520
522
510
503
502
505
514
525
527
523
515
503
498
509
526
545
550
534
529
527
527
527
527
530
547
558
538
524
535
551
550
528
514
517
520
521
525
532
520
495
475
466
477
497
507
505
501
515
527
518
505
493
481
474
477
484
493
502
525
561
593
623
658
717
785
851
889
897
878
834
775
707
639
580
533
492
454
422
397
382
370
363
382
411
439
468
478
465
454
456
461
455
451
464
486
501
503
496
492
504
502
479
465
478
503
515
510
490
466
454
446
440
447
467
483
494
492
479
463
465
466
466
465
476
491
520
551
551
522
492
469
467
489
505
518
540
545
535
518
493
483
486
482
499
529
549
539
519
515
523
531
528
523
530
549
560
556
554
552
538
524
524
546
568
588
597
600
594
573
550
521
500
510
543
573
591
598
597
594
590
581
582
583
590
609
625
628
626
621
609
595
576
573
589
611
624
623
619
611
594
584
574
560
553
556
564
569
572
568
558
546
526
499
475
463
473
489
497
490
481
466
438
421
409
405
411
416
415
414
416
409
399
388
384
398
409
402
402
408
417
413
392
388
405
426
438
434
433
434
434
420
403
410
427
444
459
460
448
437
430
421
417
414
418
444
468
476
474
466
444
422
406
414
442
473
493
494
485
476
467
455
457
465
477
493
501
518
525
530
528
498
472
464
452
453
465
470
469
472
473
473
465
476
488
514
536
532
513
507
501
486
474
474
486
501
511
500
492
494
503
496
478
469
485
515
530
518
499
492
492
482
474
475
485
501
515
527
537
539
522
490
466
468
482
493
504
519
528
531
530
524
511
502
502
519
535
537
532
523
518
521
511
492
478
477
497
516
522
525
520
512
502
496
505
523
535
541
533
516
504
497
504
508
515
525
530
529
531
538
541
532
514
502
505
532
550
549
550
549
539
522
505
503
509
533
547
550
542
529
531
524
508
497
508
530
540
544
536
522
506
489
489
504
517
521
523
526
529
530
534
517
495
491
512
541
551
556
538
522
518
500
489
502
525
552
565
553
533
530
525
512
500
491
494
507
519
530
536
538
533
517
497
495
504
520
522
520
516
510
507
501
494
491
501
519
535
542
536
522
519
501
488
487
493
510
527
533
534
526
498
477
479
502
529
540
540
528
509
507
515
507
494
490
501
521
544
561
570
552
526
504
491
491
507
521
519
522
528
534
533
519
501
491
506
532
555
562
557
545
524
504
485
481
482
498
517
528
522
517
516
499
478
474
481
489
491
497
501
497
493
490
484
485
519
568
611
654
703
748
795
832
840
838
823
790
751
698
625
555
513
481
458
436
428
433
446
454
453
457
465
460
457
464
464
464
463
443
430
440
449
446
441
438
454
469
471
467
458
455
464
475
473
471
467
479
493
486
478
482
485
475
463
461
463
473
483
495
506
508
498
481
473
482
501
514
519
525
525
516
516
513
502
500
503
510
524
535
534
524
512
489
468
476
501
526
545
548
544
538
532
526
518
511
521
531
544
554
561
580
597
590
591
587
566
548
548
554
560
556
550
548
551
564
588
614
627
626
620
616
611
597
564
555
580
608
620
621
626
630
626
601
584
592
617
644
652
641
625
615
602
581
551
526
537
560
567
554
537
523
519
514
498
472
453
461
476
476
464
449
433
412
388
380
394
412
429
439
445
439
432
427
414
404
417
440
442
430
418
412
416
422
423
425
423
430
442
441
435
421
417
430
434
436
438
448
465
470
463
460
454
444
431
438
457
482
502
500
495
488
473
452
445
453
459
463
464
480
491
490
473
448
438
453
480
508
525
524
517
501
486
461
446
449
462
481
489
496
510
525
530
518
501
494
505
522
530
528
523
516
503
476
464
481
502
508
517
525
536
547
541
512
484
464
470
490
506
506
492
499
509
509
498
498
509
531
541
534
524
512
500
485
475
485
516
544
551
532
527
543
537
523
509
502
511
534
541
534
523
521
524
512
508
517
518
520
524
525
526
519
513
495
479
473
483
506
525
524
517
514
509
492
480
491
511
527
538
526
520
522
539
550
533
519
526
543
553
545
531
522
515
507
494
491
502
512
514
525
534
529
502
486
492
505
512
516
523
530
521
503
501
499
476
468
486
516
536
546
541
529
517
502
490
497
528
546
542
531
534
538
532
513
498
488
489
501
514
521
526
530
523
500
488
498
521
527
522
515
514
526
531
526
518
513
505
506
518
521
514
513
517
503
485
481
497
518
513
511
520
537
545
541
532
509
500
505
516
526
535
541
535
512
490
491
510
524
529
534
533
523
509
500
486
485
513
546
555
549
542
528
516
513
515
519
519
519
532
547
557
564
557
540
512
496
492
515
544
556
543
525
521
520
513
501
502
508
517
509
494
491
502
501
497
494
488
503
509
514
521
522
510
492
483
481
486
503
536
565
591
610
651
705
753
802
839
859
859
833
789
740
685
605
524
473
441
426
424
427
418
402
384
374
375
400
434
453
465
472
471
461
445
424
410
415
435
457
466
469
476
471
451
444
439
437
451
468
482
478
460
450
449
451
463
473
492
520
539
540
503
466
454
439
421
421
444
469
486
489
489
486
472
454
444
450
466
496
516
506
501
514
527
515
495
499
525
549
544
530
507
490
486
489
496
519
551
567
574
557
542
542
526
507
508
523
549
559
559
562
567
562
568
570
559
557
569
590
598
595
584
574
569
569
582
596
611
630
646
647
649
625
601
590
581
578
591
615
625
618
595
575
559
541
518
511
530
554
568
567
554
538
518
495
486
488
486
483
483
475
472
468
464
457
445
438
432
432
429
416
407
408
410
405
387
388
403
412
417
412
403
399
407
422
407
401
411
420
418
413
412
413
410
403
409
432
441
446
454
451
433
429
431
426
420
423
435
455
473
466
446
447
450
432
417
439
482
512
517
495
464
444
441
439
445
462
490
523
557
569
531
486
457
442
433
436
452
474
489
498
501
503
501
487
469
467
479
488
484
492
495
489
480
469
465
466
476
490
499
507
518
512
508
505
495
487
503
521
543
540
519
501
492
483
478
477
487
505
516
509
505
504
496
498
510
522
525
526
518
493
480
481
474
472
463
453
464
488
514
526
527
524
515
500
489
489
503
516
522
522
526
531
526
494
473
475
495
517
521
506
501
517
524
523
521
508
500
497
489
484
483
484
480
485
489
500
518
543
557
561
557
550
547
547
529
517
509
511
524
527
517
497
481
474
479
495
520
528
516
519
521
515
526
519
513
513
503
501
517
529
536
536
519
498
486
482
485
499
520
523
519
513
502
489
491
507
535
556
555
546
530
512
496
488
481
488
498
522
541
549
541
537
537
527
505
493
501
519
532
523
505
499
504
511
516
528
540
550
547
531
519
519
521
506
490
499
539
572
569
554
532
522
520
519
530
544
550
550
556
561
559
563
555
537
519
507
509
529
548
555
542
526
511
510
515
520
533
546
549
533
525
527
521
503
486
482
498
515
520
516
500
474
456
466
479
487
505
528
540
540
526
504
494
486
488
514
560
620
680
739
791
829
851
863
861
826
775
727
674
612
550
496
445
403
377
360
371
403
424
430
435
434
425
422
433
454
476
496
491
476
463
464
469
465
456
456
467
477
485
482
478
482
486
493
499
489
483
487
498
507
506
504
493
473
469
484
504
530
553
547
516
490
475
467
464
474
495
507
513
517
515
506
491
475
478
490
505
527
542
536
529
518
510
504
506
518
527
531
531
528
528
528
528
529
527
518
515
532
549
562
569
576
584
585
573
560
565
572
577
583
587
599
592
580
580
582
592
607
606
605
612
615
616
614
613
614
614
623
633
630
624
621
615
605
593
586
587
596
605
608
609
609
598
563
544
544
546
551
549
541
529
519
508
486
471
468
466
473
485
482
473
460
439
411
397
398
409
435
455
450
434
428
419
403
398
400
396
407
432
455
462
455
445
436
434
438
440
441
438
438
440
443
436
419
416
433
460
480
472
452
446
444
435
421
403
397
418
469
520
531
515
496
476
454
445
444
456
475
491
506
519
516
500
484
474
472
476
495
516
520
502
484
487
494
494
493
497
507
521
531
535
532
531
505
484
500
535
559
572
579
592
607
603
556
506
486
490
500
506
509
507
516
522
524
530
536
543
556
564
548
526
536
544
532
516
520
554
608
656
677
671
642
598
572
572
598
626
648
650
621
580
549
524
505
500
523
573
622
656
649
601
555
530
514
504
497
504
515
509
492
474
460
427
403
374
346
344
357
355
314
250
195
171
145
108
88
125
188
225
223
212
186
146
90
55
35
75
168
265
339
376
381
347
264
160
94
64
107
160
197
217
248
261
250
265
335
394
315
182
107
64
39
33
607
1023
1023
1023
1023
715
423
252
152
92
412
947
1023
1023
1023
1023
1023
1023
1023
1023
1023
1023
1023
1023
1023
1023
1023
1023
1023
1023
1023
1023
1023
1023
1023
1023
1023
1023
1023
1023
1023
1023
1023
1023
1023
876
522
313
189
115
71
544
1022
1023
1023
600
354
211
128
78
48
240
844
1023
999
579
340
203
123
75
46
137
765
1023
845
491
289
173
104
64
40
288
873
1023
1023
679
399
237
143
86
53
515
1005
1023
1023
903
530
314
188
114
74
614
1023
1023
1023
960
563
334
200
121
77
609
1023
1023
1023
986
578
342
205
124
79
613
1023
1023
1023
1006
589
349
209
126
81
615
1023
1023
1023
999
585
347
208
126
80
614
1023
1023
1023
987
579
343
205
124
79
610
1023
1023
1023
981
575
341
204
124
78
604
1023
1023
1023
963
565
335
201
121
76
594
1023
1023
1023
941
552
327
196
119
73
582
1023
1023
1023
922
542
321
193
116
71
572
1023
1023
1023
910
535
317
190
115
70
561
1023
1023
1023
892
525
311
187
113
69
548
1023
1023
1023
876
515
306
183
111
68
534
1016
1023
1023
861
506
300
180
109
67
519
1007
1023
1023
846
497
295
177
107
66
503
998
1023
1023
832
489
290
174
105
65
488
990
1023
1023
816
480
285
171
104
64
471
980
1023
1023
799
470
279
168
101
62
454
970
1023
1023
786
462
275
165
100
61
438
960
1023
1023
775
456
271
163
98
60
425
953
1023
1023
769
452
269
161
98
60
418
949
1023
1023
765
450
268
161
97
60
415
947
1023
1023
766
451
268
161
97
60
416
947
1023
1023
772
454
270
162
98
60
418
948
1023
1023
775
456
271
163
98
60
420
950
1023
1023
774
455
271
163
98
60
417
948
1023
1023
767
451
268
161
97
60
414
946
1023
1023
759
447
266
159
96
59
406
942
1023
1023
748
440
262
157
95
58
396
936
1023
1023
735
432
257
155
94
57
384
929
1023
1023
720
424
252
152
92
56
371
922
1023
1023
705
415
247
149
90
55
353
911
1023
1023
687
405
240
145
88
54
326
895
1023
1023
661
389
232
139
84
52
41
470
368
213
126
75
45
28
18
11
8
5
4
3
2
2
2
1
1
1
1
1
1
1
1
1
1
1
1
1
1
1
1
1
1
1
1
1
1
1
98
736
1023
840
488
288
172
104
63
39
196
815
1023
939
545
321
192
115
70
43
225
835
1023
971
563
331
198
119
72
45
245
847
1023
987
572
337
201
121
73
45
260
856
1023
996
577
340
203
122
74
46
270
862
1023
996
577
340
203
122
74
46
274
864
1023
991
574
338
202
122
74
46
276
865
1023
983
569
335
200
121
73
45
273
864
1023
970
562
331
198
119
72
45
266
859
1023
952
552
326
194
117
71
44
256
854
1023
931
541
319
190
115
70
43
245
847
1023
911
529
312
186
112
68
42
236
842
1023
896
520
307
183
110
67
41
228
837
1023
878
510
301
180
109
66
41
222
832
1023
865
503
297
177
107
65
40
215
828
1023
851
495
292
175
105
64
40
207
823
1023
838
487
288
172
104
63
39
201
819
1023
828
481
284
170
102
62
39
192
813
1023
812
472
279
167
100
61
38
182
806
1023
794
462
273
163
98
60
37
166
794
1023
765
446
263
158
95
58
36
146
778
1023
732
426
252
151
91
55
34
127
761
1023
700
407
241
144
87
53
33
108
743
1021
661
385
228
137
82
50
31
85
719
972
613
357
212
127
77
47
29
68
697
920
566
330
196
117
71
44
27
54
676
868
524
306
182
109
66
40
25
42
657
815
483
283
168
101
61
37
23
34
639
748
436
256
152
91
55
34
21
26
617
695
402
236
140
84
51
31
19
20
571
619
356
209
124
75
45
28
17
15
506
533
306
179
107
64
39
24
15
11
432
432
249
146
87
52
32
19
12
8
309
278
160
94
56
33
20
12
8
5
4
3
2
2
2
4
27
23
13
116
753
999
668
389
230
138
84
51
32
22
422
428
260
251
326
398
441
394
233
163
719
787
583
534
580
632
657
591
365
304
866
1018
758
599
554
