823
823
527
497
496
499
505
511
514
513
509
504
498
494
494
496
500
504
506
505
499
491
483
477
475
476
480
484
484
482
477
470
462
456
454
455
458
461
462
460
454
444
434
426
422
421
423
425
424
419
411
400
388
377
369
365
361
358
352
344
333
319
306
296
290
288
288
287
284
279
272
261
251
245
243
246
252
257
261
262
260
253
248
245
246
251
259
268
273
275
273
270
266
264
266
273
280
288
292
293
290
286
281
279
281
286
293
300
306
308
306
301
297
294
295
300
308
315
320
322
320
315
309
306
307
313
321
330
335
337
335
331
327
325
327
333
339
346
352
353
351
348
344
343
344
349
356
363
367
369
367
363
359
357
359
364
372
380
385
386
383
377
370
367
369
374
381
388
393
394
392
386
380
377
377
382
389
396
400
400
396
391
386
383
384
390
398
407
412
413
410
404
398
394
393
396
402
409
414
415
414
411
407
403
403
407
414
420
425
426
422
416
412
409
410
414
420
428
433
434
431
425
420
416
416
420
426
433
438
440
437
431
424
420
420
424
431
439
444
446
444
439
434
432
432
437
443
450
455
457
454
449
443
439
440
444
451
458
464
465
462
457
450
446
446
451
458
466
471
472
469
463
457
453
454
458
464
473
479
480
476
470
464
461
462
468
475
482
485
486
482
476
468
464
464
467
473
480
486
487
484
479
473
469
468
472
479
486
490
492
490
484
478
473
472
475
481
489
493
494
492
487
481
477
476
480
487
493
498
500
498
492
486
482
483
487
494
502
507
509
505
501
496
491
490
495
502
510
515
516
514
508
502
497
496
499
506
514
520
522
519
514
507
502
502
506
513
520
527
529
528
524
517
512
510
514
520
528
534
535
534
528
521
517
517
521
528
536
540
541
538
531
524
519
519
524
531
539
544
545
542
536
531
526
525
528
535
543
548
550
548
542
535
531
529
533
540
549
556
559
555
548
541
536
535
537
544
553
559
561
559
553
546
540
539
543
549
558
564
566
562
555
548
543
542
546
553
560
566
569
567
562
555
551
550
554
561
568
575
576
574
569
562
557
556
559
566
575
581
584
583
578
570
565
563
566
572
579
585
587
587
583
577
572
570
572
577
584
589
591
589
582
575
570
568
571
578
586
592
594
593
587
580
576
574
577
583
591
597
599
597
591
584
578
576
578
583
590
596
599
598
593
585
578
575
576
582
590
597
600
599
594
586
579
577
580
586
595
603
606
603
596
588
581
579
582
589
597
602
604
602
595
587
579
576
577
582
588
593
596
596
592
585
578
575
577
582
589
596
598
596
591
583
576
574
576
582
589
596
599
597
591
583
576
572
574
580
588
595
596
594
588
579
571
569
573
579
588
595
599
598
592
584
577
574
574
578
585
593
597
595
591
585
578
575
576
581
588
594
598
597
592
585
578
575
577
582
589
597
600
600
595
588
580
577
579
584
591
598
601
599
593
586
580
578
579
584
592
598
602
602
598
591
584
579
578
583
590
598
603
604
599
592
585
582
583
588
596
603
607
607
602
595
589
585
585
591
600
607
610
610
605
597
591
588
589
593
600
607
610
610
604
596
589
585
586
591
600
608
612
610
604
597
590
586
586
592
600
607
610
609
603
595
589
585
585
589
596
603
607
607
603
596
589
584
584
588
596
603
607
607
602
594
587
582
582
587
594
601
606
606
601
593
587
582
582
587
595
603
608
610
606
598
590
584
584
588
594
601
606
606
602
595
587
583
582
586
594
602
607
607
603
595
588
582
580
582
588
595
600
601
598
591
583
577
576
580
588
596
601
603
599
592
584
579
579
584
591
599
603
604
600
593
586
581
580
584
590
598
603
603
598
590
582
577
576
578
585
593
598
599
594
586
578
573
573
577
584
591
594
593
590
583
577
571
569
572
579
588
595
596
593
586
578
572
572
575
583
590
595
596
592
586
578
574
573
577
584
592
597
599
595
588
579
574
572
576
583
590
594
594
592
586
579
574
573
576
583
590
595
596
592
585
577
571
569
573
580
587
592
593
589
583
576
571
569
573
578
586
592
594
591
585
578
572
569
571
578
585
591
593
590
584
577
571
569
571
576
584
590
591
587
580
573
566
562
564
571
579
585
587
585
580
573
568
565
568
574
581
586
587
585
578
570
563
561
564
571
579
586
588
585
578
569
563
560
562
568
577
584
587
585
579
571
564
562
565
572
579
584
585
582
575
566
559
558
561
568
575
580
582
580
575
566
559
556
558
563
571
577
580
578
571
563
556
553
555
562
570
576
579
577
571
563
556
554
556
562
570
576
579
577
570
562
555
553
555
562
569
575
577
574
568
561
554
552
555
561
568
574
577
575
569
561
555
552
554
559
567
573
575
573
567
560
555
553
555
560
567
574
576
574
568
561
554
550
551
556
564
572
575
573
566
558
552
550
551
556
562
568
571
571
566
559
551
548
549
555
563
570
574
574
569
561
553
549
550
556
563
568
571
569
563
556
549
546
547
552
559
566
569
567
561
555
549
546
547
551
558
565
568
566
561
553
546
542
542
547
553
560
563
562
557
550
542
537
536
539
547
555
560
560
555
546
538
533
532
535
542
550
555
554
549
541
534
529
529
533
539
544
547
546
541
534
527
523
523
527
534
541
545
544
540
532
524
519
519
524
531
537
542
541
535
527
520
515
514
519
525
532
536
536
530
522
514
508
509
514
521
529
533
533
528
521
514
509
509
515
522
529
532
530
525
517
509
504
503
508
516
522
526
525
519
511
502
497
496
500
507
514
519
518
514
507
498
491
489
490
496
503
507
506
501
492
483
478
477
482
489
496
500
498
493
485
477
471
469
471
476
482
486
486
481
474
465
460
458
461
467
473
477
477
472
465
456
449
447
449
456
462
466
464
459
451
443
437
437
441
449
457
461
462
457
450
442
437
436
439
446
453
457
457
452
444
438
435
436
441
449
457
464
466
463
456
449
446
445
449
456
464
470
472
469
464
459
455
455
461
470
480
488
492
489
483
477
474
477
485
495
507
515
518
515
510
506
504
507
515
526
538
546
550
550
547
543
543
548
557
569
581
590
596
597
595
593
594
599
609
623
637
647
653
653
652
650
652
657
666
678
691
702
707
708
704
699
699
703
711
723
734
743
746
744
739
734
732
733
739
749
760
768
771
769
763
757
753
755
760
768
777
784
786
783
776
769
764
764
769
777
785
790
791
787
780
772
766
765
770
778
787
793
793
787
780
771
765
764
767
774
782
788
789
785
777
770
765
763
766
772
779
785
786
782
775
768
763
762
766
773
781
787
789
786
780
772
765
763
766
773
781
787
788
784
776
766
758
754
756
761
766
770
769
763
752
742
733
727
727
731
735
738
735
727
715
702
690
683
680
681
683
684
680
671
658
644
631
622
618
618
619
619
614
603
587
570
556
547
544
544
544
542
535
524
508
491
476
467
464
464
465
463
456
444
429
413
399
391
388
391
394
394
388
376
360
343
329
321
320
323
327
327
321
310
295
280
268
262
262
268
273
274
271
262
249
237
229
227
231
239
249
255
254
246
235
224
219
220
228
238
247
254
255
251
242
233
228
229
236
247
258
264
265
260
252
244
239
242
251
264
276
284
286
281
272
264
260
264
273
285
296
305
308
306
299
292
288
290
298
310
321
328
328
322
313
306
303
306
316
330
342
350
351
345
337
328
322
324
331
342
353
359
358
353
343
333
327
329
340
357
376
393
403
407
405
404
408
421
440
462
486
505
520
528
534
539
546
558
576
597
616
627
629
622
610
598
590
589
593
596
595
589
574
551
523
492
463
442
427
416
407
392
365
326
278
228
182
145
115
92
73
53
33
20
13
8
6
4
3
2
2
1
1
1
1
1
1
1
1
1
1
1
1
1
1
1
1
1
1
1
1
1
1
1
1
1
1
1
1
1
1
1
1
1
1
1
1
1
1
1
1
1
1
1
1
1
1
1
1
1
1
1
1
1
1
1
1
1
1
1
1
1
1
1
1
1
1
1
1
1
1
1
1
1
1
1
1
1
1
1
1
1
1
1
1
1
1
0
1
1
0
1
1
1
1
1
1
1
1
1
1
1
1
1
1
1
1
1
1
1
1
1
1
1
1
0
1
1
1
0
1
1
1
0
1
1
1
1
1
1
1
0
1
1
1
1
1
1
1
1
0
1
1
0
1
1
1
1
0
1
1
1
1
1
1
1
1
1
1
1
1
1
0
1
1
1
1
1
1
1
1
1
1
1
1
1
1
1
1
1
0
1
1
1
1
0
1
1
1
1
1
1
0
0
1
1
1
1
0
1
1
0
1
0
1
1
1
1
1
1
0
1
1
1
1
0
1
1
14
80
172
272
374
475
575
675
771
865
957
1023
1023
1023
1023
1023
1023
1023
1023
1023
1023
1023
1023
1023
1023
1023
1023
1023
1023
1023
1023
1023
1023
1023
1023
1023
1023
1023
1023
1023
1023
1023
1023
1023
1023
1023
1023
1023
1023
1023
856
513
310
189
116
72
45
28
18
12
8
6
4
3
2
2
2
2
1
1
1
1
1
1
16
295
809
1023
1023
1023
1023
1023
1023
1023
1023
1023
1023
1023
1023
1023
1023
1023
1023
1023
1023
1023
1023
1023
1023
1023
1023
1023
1023
1023
1023
1023
1023
1023
1023
1023
1023
1023
1023
1023
1023
1023
1023
1023
1023
1023
1023
1023
1023
1023
1023
1023
1023
1023
1023
1023
1023
1023
1023
1023
1023
1023
1023
1023
1023
1023
1023
1023
1023
1023
1023
1023
1023
1023
1023
1023
1023
1023
1023
1023
1023
1023
1023
1023
1023
1023
1023
1023
1023
1023
1023
1023
1023
1023
1023
1023
1023
1023
1023
1023
1023
1023
1023
1023
1023
1023
1023
1023
1023
1023
1023
1023
1023
1023
1023
1023
1023
1023
1023
1023
1023
1023
1023
1023
1023
1023
1023
1023
1023
1023
1023
1023
1023
1023
1023
1023
1023
1023
1023
1023
1023
1023
1023
1023
1023
1023
1023
1023
1023
1023
1023
1023
1023
1023
1023
1023
1023
1023
1023
1023
1023
1023
1023
1023
1023
1023
1023
1023
1023
1023
1023
1023
1023
1023
1023
1023
1023
1023
1023
1023
1023
1023
1023
1023
1023
1023
1023
1023
1023
1023
1023
1023
1023
1023
1023
1023
1023
1023
1023
1023
1023
1023
1023
1023
1023
1023
1023
1023
1023
1023
1023
1023
1023
1023
1023
1023
1023
1023
1023
1023
1023
1023
1023
1023
1023
1023
1023
1023
1023
1023
1023
1023
1023
1023
1023
1023
1023
1023
1023
1023
1023
1023
1023
1023
1023
1023
1023
1023
1023
1023
1023
1023
1023
1023
1023
1023
1023
1023
1023
1023
1023
1023
1023
1023
1023
1023
1023
1023
1023
1023
1023
1023
1023
1023
1023
1023
1023
1023
1023
1023
1023
1023
1023
1023
1023
1023
1023
1023
1023
1023
1023
1023
1023
1023
1023
1023
1023
1023
1023
1023
1023
1023
1023
1023
1023
1023
1023
1023
1023
1023
966
654
396
241
148
91
57
36
23
15
10
7
5
4
3
2
2
2
2
1
1
1
1
1
1
1
1
1
1
1
1
1
1
1
1
1
1
1
1
1
1
1
1
1
1
1
1
1
1
1
1
1
1
1
1
1
1
1
1
1
1
1
1
1
1
1
1
1
1
1
1
1
1
1
1
1
1
1
1
1
1
1
1
1
1
1
1
1
1
1
1
1
1
1
1
1
1
1
1
1
1
1
1
1
1
1
1
1
1
1
1
1
1
1
1
1
1
1
1
0
1
1
1
1
1
1
1
1
1
1
1
1
1
1
1
1
1
1
1
1
1
1
1
0
1
1
1
1
1
1
1
1
1
1
1
1
1
1
1
1
1
1
1
1
1
1
1
1
1
1
1
1
1
1
1
1
1
1
0
1
1
1
1
1
1
1
1
1
1
1
1
1
1
1
1
1
1
1
1
1
1
1
0
1
1
1
1
1
1
1
1
1
1
1
1
1
1
1
1
0
1
1
1
1
1
1
1
1
0
1
1
1
0
1
1
1
1
1
1
1
1
1
1
1
1
1
1
1
1
1
1
1
1
1
1
1
1
0
1
1
0
1
0
1
1
1
1
1
1
0
1
1
1
1
1
0
1
1
1
1
1
1
0
1
1
1
1
1
1
1
1
1
0
1
1
1
1
1
1
1
1
1
1
0
1
1
1
1
1
1
0
1
1
1
1
0
0
1
1
1
1
1
0
1
1
1
1
1
1
0
0
1
1
1
0
0
1
1
0
0
1
0
1
0
1
1
1
1
1
1
1
1
1
0
1
1
1
0
1
1
1
1
1
1
1
1
1
1
1
0
0
0
1
1
1
1
0
1
1
1
1
1
1
1
1
0
0
1
1
1
1
1
1
1
1
1
1
1
0
1
1
1
0
1
1
1
1
1
0
1
0
1
0
1
1
1
1
0
1
1
1
1
0
1
0
1
1
1
0
0
1
1
1
1
1
1
1
1
1
0
1
1
1
1
1
1
1
1
1
1
1
1
0
1
1
1
1
1
1
1
1
1
1
1
1
1
1
0
1
1
1
1
1
1
1
0
1
1
0
1
1
1
1
1
1
0
1
1
1
1
1
1
1
1
1
1
1
1
0
1
1
1
1
1
1
0
1
1
1
1
1
1
1
0
1
0
1
1
1
1
1
1
1
1
1
1
1
1
1
1
1
0
0
1
1
1
1
1
1
0
1
1
1
1
1
1
1
1
1
1
1
1
1
1
0
1
1
0
1
1
1
1
1
1
1
1
1
0
1
0
1
1
0
1
1
1
1
1
1
1
1
0
1
1
0
1
0
1
1
1
1
1
1
0
1
0
1
1
1
0
1
0
1
1
1
1
1
1
0
1
1
1
1
0
1
1
1
1
1
1
1
1
1
1
1
0
1
1
0
1
0
1
0
0
0
1
1
1
0
1
1
0
1
1
1
1
1
1
0
1
1
1
0
1
1
1
1
1
1
1
0
1
1
1
1
1
1
1
1
0
1
1
0
1
0
1
1
0
1
1
1
1
0
1
1
1
1
0
1
1
1
0
1
1
1
1
0
1
1
1
1
0
1
1
1
0
1
1
1
1
1
1
1
1
1
1
1
1
0
1
1
1
1
0
1
1
1
1
1
1
0
0
1
1
1
0
0
1
1
1
0
0
1
1
1
1
1
0
1
1
1
1
1
1
1
0
0
1
1
1
1
1
0
1
1
1
1
1
1
0
1
1
1
0
1
1
0
1
1
1
0
0
0
1
0
0
1
1
1
1
1
1
1
1
0
1
1
1
1
1
1
1
0
1
0
1
1
1
0
1
1
1
0
1
1
1
1
1
1
1
1
1
1
1
1
1
1
1
1
1
1
1
1
1
1
1
1
1
1
1
1
1
1
1
1
1
1
1
0
1
1
1
1
1
1
1
1
1
1
1
1
1
1
1
1
1
1
1
1
0
1
1
1
1
1
1
1
1
1
1
1
1
1
1
1
1
1
1
1
1
1
1
1
1
1
1
1
1
1
1
1
1
1
1
1
1
1
1
1
1
1
1
1
1
1
1
1
1
1
1
1
1
1
1
1
1
1
1
1
1
1
1
1
1
1
2
3
4
5
6
7
8
9
10
11
12
13
14
15
16
17
18
19
20
21
22
23
24
25
25
26
28
28
29
30
31
32
33
34
35
36
37
38
38
39
40
41
42
43
44
45
46
47
48
48
49
50
51
52
53
54
55
56
57
57
58
59
60
61
62
63
64
64
65
66
67
68
69
69
70
71
72
73
74
75
75
76
77
78
79
80
80
81
82
83
84
85
85
86
87
88
89
89
90
91
92
93
94
94
95
96
97
97
98
99
100
101
102
102
103
104
105
106
106
107
108
109
109
110
111
112
112
113
114
115
115
116
117
118
119
119
120
121
122
122
123
124
124
125
126
127
128
128
129
130
130
131
132
133
133
134
135
136
136
137
138
139
139
140
141
142
142
143
144
144
145
146
146
147
148
148
149
150
150
151
152
153
153
154
155
155
156
157
157
158
159
159
160
160
161
162
163
163
164
165
165
166
166
167
168
169
169
170
170
171
172
172
173
174
174
175
176
176
177
177
178
179
179
180
181
181
182
183
183
184
184
185
186
186
187
188
188
189
189
190
191
191
192
192
193
194
194
195
195
196
197
197
198
198
199
200
200
201
201
202
203
203
204
204
205
206
206
207
207
208
208
209
209
210
211
211
212
212
213
214
214
215
215
216
216
217
217
218
219
219
220
220
221
221
222
222
223
224
224
225
225
226
226
227
227
228
228
229
229
230
230
231
231
232
233
233
234
234
235
235
236
236
237
237
238
238
239
239
240
240
241
241
242
242
243
243
244
244
245
245
246
246
247
247
248
248
249
249
250
250
251
251
252
252
253
253
254
254
255
255
256
256
257
257
258
258
259
259
260
260
261
261
262
262
263
263
264
264
265
265
265
266
266
267
267
268
268
269
269
270
270
270
271
271
272
272
273
273
274
274
275
275
275
276
276
277
277
278
278
278
279
279
280
280
281
281
282
282
282
283
283
284
284
285
285
285
286
286
287
287
287
288
288
288
289
289
290
290
291
291
292
292
292
293
293
294
294
294
295
295
296
296
296
297
297
298
298
298
299
299
299
300
300
301
301
301
302
302
303
303
303
304
304
305
305
305
306
306
306
307
307
308
308
308
309
309
309
310
310
311
311
311
312
312
313
313
313
314
314
314
315
315
315
316
316
317
317
317
318
318
318
319
319
319
320
320
320
321
321
321
322
322
322
323
323
324
324
324
324
325
325
326
326
326
327
327
327
328
328
328
329
329
329
330
330
330
331
331
331
332
332
332
332
333
333
334
334
334
335
335
335
335
336
336
336
337
337
337
338
338
338
339
339
339
340
340
340
340
341
341
341
342
342
342
343
343
343
344
344
344
344
345
345
345
346
346
346
347
347
347
348
348
348
348
349
349
349
350
350
350
350
351
351
351
352
352
352
352
353
353
353
354
354
354
354
355
355
355
356
356
356
356
357
357
357
358
358
358
358
359
359
359
359
360
360
360
361
361
361
361
362
362
362
362
363
363
363
364
364
364
364
365
365
365
365
366
366
366
367
367
367
367
367
368
368
368
368
369
369
369
370
370
370
370
371
371
371
371
372
372
372
372
373
373
373
373
374
374
374
374
375
375
375
375
376
376
376
376
377
377
377
377
378
378
378
378
379
379
379
379
380
380
380
380
380
381
381
381
381
382
382
382
382
383
383
383
383
384
384
384
384
385
385
385
385
385
386
386
386
386
387
387
387
387
387
387
388
388
388
388
389
389
389
389
390
390
390
390
390
391
391
391
391
391
392
392
392
392
393
393
393
393
393
394
394
394
394
394
395
395
395
395
395
396
396
396
396
396
397
397
397
397
397
398
398
398
398
398
399
399
399
399
399
400
400
400
400
400
401
401
401
401
401
401
402
402
402
402
402
403
403
403
403
404
404
404
404
404
404
404
405
405
405
405
406
406
406
406
406
406
407
407
407
407
407
408
408
408
408
408
408
409
409
409
409
409
409
410
410
410
410
411
411
411
411
411
411
411
412
412
412
412
412
413
413
413
413
413
413
414
414
414
414
414
414
414
415
415
415
415
415
415
416
416
416
416
416
416
417
417
417
417
417
417
417
418
418
418
418
418
419
419
419
419
419
419
419
420
420
420
420
420
420
421
421
421
421
421
421
422
422
422
422
422
422
423
422
423
423
423
423
423
423
424
424
424
424
424
424
425
425
425
425
425
425
425
426
426
426
426
426
426
427
427
427
427
427
427
427
428
428
428
428
428
428
428
428
429
429
429
429
429
429
429
430
430
430
430
430
430
430
431
431
431
431
431
431
431
431
432
432
432
432
432
432
432
432
433
433
433
433
433
433
433
433
434
434
434
434
434
434
434
435
435
435
435
435
435
435
435
436
436
436
436
436
436
436
436
437
437
437
437
437
437
437
437
437
438
438
438
438
438
438
438
439
439
439
439
439
439
439
439
440
440
440
440
440
440
440
440
440
440
441
441
441
441
441
441
441
441
442
442
442
442
442
442
442
442
442
443
443
443
443
443
443
443
443
444
444
444
444
444
445
451
474
505
510
494
484
485
481
471
461
455
472
490
485
477
483
489
502
521
520
511
515
532
546
560
561
556
544
536
541
527
504
497
505
515
514
504
507
511
519
545
572
595
607
591
560
535
522
513
515
534
542
546
544
542
523
505
518
516
539
573
582
584
580
567
550
555
571
586
596
604
604
604
621
636
636
619
594
584
581
594
623
640
635
613
599
591
581
560
536
536
541
556
560
569
586
600
612
622
660
717
777
855
941
1018
1023
1023
1023
1023
987
959
933
888
823
737
657
597
558
522
502
516
526
524
534
566
597
611
612
602
584
589
619
645
646
642
645
651
649
652
670
695
724
730
713
684
657
644
645
659
664
659
666
685
705
711
708
715
737
769
787
789
776
758
741
733
748
773
797
807
808
811
821
829
834
847
860
847
806
773
769
773
771
777
795
809
813
816
834
853
857
853
841
832
846
868
880
899
913
918
915
920
928
936
931
915
911
915
926
956
974
979
987
989
987
978
959
941
939
948
969
994
1014
1021
1023
1023
1023
1023
1023
1003
987
993
1015
1023
1023
1023
1023
1023
1023
1023
1023
1023
1023
1023
1023
1023
1023
1023
1023
1023
1023
1023
1023
1023
1023
1023
1023
1023
1023
1023
1023
1023
1023
1003
985
960
942
952
976
1005
1016
1008
1001
1001
1008
1002
995
1004
1023
1023
1023
1015
1011
1019
1018
1012
1014
1005
982
971
980
982
970
964
972
988
1009
1017
1009
1011
1023
1023
1023
1023
1023
1022
1007
1002
1001
1012
1023
1023
1023
1023
1023
1023
1023
1023
1020
1023
1023
1023
1023
1023
1023
1023
1023
1023
1023
1023
1023
1023
1023
1023
1023
1023
1023
1023
1023
1023
1023
1023
1023
1023
1023
1023
1023
1023
1023
1023
1023
1023
1023
1023
1023
1023
1023
1023
1023
1023
1023
1023
1023
1023
1023
1023
1023
1023
1023
1023
1023
1023
1023
1023
1023
1023
1023
1023
1023
1023
1023
1023
1023
1023
1023
1023
1023
1023
1023
1023
1023
1023
1023
1023
1023
1023
1023
1023
1023
1023
1023
1023
1023
1023
1023
1023
1023
1023
1023
1023
1023
1023
1023
1023
1023
1023
1023
1023
1023
1023
1023
1023
1023
1023
1023
1023
1023
1023
1023
1023
1023
1023
1023
1023
1023
1023
1023
1023
1023
1023
1023
1023
1023
1023
1023
1023
1023
1023
1023
1023
1023
1023
1023
1023
1023
1023
1023
1023
1023
1023
1023
1023
1023
1023
1023
1023
1023
1023
1023
1023
1023
1023
1023
1023
1023
1023
1023
1023
1023
1023
1023
1023
1023
1023
1023
1023
1023
1023
1023
1023
1023
1023
1023
1023
1023
1023
1023
1023
1023
1023
1023
1023
1023
1023
1023
1023
1023
1023
1023
1023
1023
1023
1023
1023
1023
1023
1023
1023
1023
1023
1023
1023
1023
1023
1023
1023
1023
1023
1023
1023
1023
1023
1023
1023
1023
1023
1023
1023
1023
1023
1023
1023
1023
1023
1023
1023
1023
1023
1023
1023
1023
1023
1023
1023
1023
1023
1023
1023
1023
1023
1023
1023
1023
1023
1023
1023
1023
1023
1023
1023
1023
1023
1023
1023
1023
1023
1023
1023
1023
1023
1023
1023
1023
1023
1023
1023
1023
1023
1023
1023
1023
1023
1023
1023
1023
1023
1023
1023
1023
1023
1023
1023
1023
1023
1023
1023
1023
1023
1023
1023
1023
1023
1023
1023
1023
1023
1023
1023
1023
1023
1023
1023
1023
1023
1023
1023
1023
1023
1023
1023
1023
1023
1023
1023
1023
1023
1023
1023
1023
1023
1023
1023
1023
1023
1023
1023
1023
1023
1023
1023
1023
1023
1023
1023
1023
1023
1023
1023
1023
1023
1023
1023
1023
1023
1023
1023
1023
1023
1023
1023
1023
1023
1023
1023
1023
1023
1023
1023
1023
1023
1023
1023
1023
1023
1023
1023
1023
1023
1023
1023
1023
1023
1023
1023
1023
1023
1023
1023
1023
1023
1023
1023
1023
1023
1023
1023
1023
1023
1023
1023
1023
1023
1023
1023
1023
1023
1023
1023
1023
1023
1023
1023
1023
1023
1023
1023
1023
1023
1023
1023
1023
1023
1023
1023
1023
1023
1023
1023
1023
1023
1023
1023
1023
1023
1023
1023
1023
1023
1023
1023
1023
1023
1023
1023
1023
1023
1023
1023
1023
1023
1023
1023
1023
1023
1023
1023
1023
1023
1023
1023
1023
1023
1023
1023
1023
1023
1023
1023
1023
1023
1023
1023
1023
1023
1023
1023
1023
1023
1023
1023
1023
1023
1023
1023
1023
1023
1023
1023
1023
1023
1023
1023
1023
1023
1023
1023
1020
1017
1015
1002
984
974
962
947
939
936
934
937
933
935
956
971
973
972
973
980
988
984
977
975
974
993
1013
1013
1001
974
953
957
986
1009
1013
1007
1013
1019
1023
1023
1023
1023
1023
1023
1023
1023
1023
1023
1023
1023
1023
1023
1023
1023
1023
1023
1023
1023
1023
1023
1023
1023
1023
1023
1023
1023
1023
1023
1023
1023
1023
1023
1023
1023
1023
1023
1023
1023
1023
1023
1023
1023
1023
1023
1023
1023
1023
1023
1023
1023
1023
1023
1023
1023
1023
1023
1023
1023
1023
1023
1023
1023
1023
1023
1023
1023
1023
1023
1023
1023
1023
1023
1023
1023
1023
1023
1023
1023
1023
1023
1023
1023
1023
1023
1023
1023
1023
1023
1023
1023
1023
1023
1023
1023
1023
1023
1023
1023
1023
1023
1023
1023
1023
1023
1023
1023
1023
1023
1023
1023
1023
1023
1023
1023
1023
1023
1023
1023
1023
1023
1022
1023
1023
1023
1023
1023
1023
1023
1023
1023
1023
1023
1023
1023
1023
1023
1023
1023
1023
1023
1023
1023
1023
1023
1023
1023
1023
1023
1023
1023
1023
1023
1023
1023
1023
1023
1023
1023
1023
1023
1023
1023
1023
1023
1023
1023
1023
1023
1023
1023
1023
1023
1023
1023
1023
1023
1023
1023
1023
1023
1023
1023
1023
1023
1023
1023
1023
1023
1023
1023
1023
1023
1023
1023
1023
1023
1023
1023
1023
1023
1023
1023
1023
1023
1023
1023
1023
1023
1023
1023
1023
1023
1023
1023
1023
1023
1023
1023
1023
1023
1023
1023
1023
1023
1023
1023
1023
1023
1021
1023
1023
1023
1023
1023
1023
1023
1023
1023
1023
1023
1023
1023
1023
1023
1023
1023
1023
1023
1023
1023
1023
1023
1023
1023
1023
1023
1023
1023
1023
1023
1023
1023
1023
1007
987
983
988
1005
1023
1023
1023
1023
1023
1023
1019
1016
1023
1023
1023
1023
1023
1023
1023
1023
1023
1023
1023
1023
1023
1023
1023
1023
1023
1023
1023
1023
1023
1023
1023
1023
1023
1023
1023
1023
1023
1023
1023
1023
1018
1023
1023
1023
1019
1015
1023
1023
1017
1010
1023
1023
1023
1023
1023
1023
1023
1023
1019
1010
1023
1023
1023
1023
1023
1023
1023
1023
1023
1023
1023
1023
1023
1023
1023
1023
1023
1023
1023
1023
989
924
883
877
873
860
838
829
841
864
883
906
925
922
927
943
955
967
981
989
987
979
959
939
930
943
955
961
972
963
949
945
954
970
989
983
966
959
944
957
1008
1023
1023
1011
981
943
928
929
943
954
950
936
930
951
967
972
978
972
961
976
999
1005
993
973
957
959
959
952
948
940
940
972
989
1005
1014
1017
1021
1010
989
955
930
932
932
932
936
937
925
929
940
967
1007
1023
1023
1023
1023
1023
1020
999
978
975
994
1011
1010
1001
988
992
1015
1023
1023
1023
1023
1023
1023
1023
1023
1023
1009
1009
1011
1001
994
998
1007
1021
1023
1023
1023
1023
1023
1023
1013
1006
1002
995
988
1002
1018
1016
1003
1007
1016
1023
1023
1020
1019
1013
996
985
969
948
955
967
955
935
906
877
871
872
874
865
839
823
825
832
822
812
814
804
792
777
760
749
763
785
791
790
788
769
748
751
765
767
762
771
782
794
786
767
751
749
753
757
765
757
738
737
746
769
784
783
784
787
777
757
742
748
775
800
806
787
772
780
779
776
772
774
793
804
793
760
751
775
792
780
765
765
778
789
793
780
764
771
795
810
793
775
758
750
721
711
740
779
793
792
794
807
812
782
733
697
681
681
690
699
701
703
701
705
711
720
717
700
684
674
681
701
718
722
717
702
691
701
715
727
740
750
741
727
732
743
740
725
713
715
728
744
758
767
768
773
775
778
780
777
764
760
757
748
747
748
756
769
793
801
779
755
752
766
786
788
769
762
781
792
792
793
791
776
756
751
755
758
777
794
794
786
783
788
812
844
858
861
860
850
833
819
815
826
832
827
827
848
866
867
859
852
823
797
789
806
813
799
803
810
812
809
808
808
818
826
807
794
794
800
818
833
847
855
846
838
843
849
849
834
826
821
813
821
833
845
844
834
821
808
792
777
768
767
771
799
831
845
844
828
813
811
826
829
821
801
783
774
778
796
810
798
783
799
830
856
858
848
838
818
787
781
797
808
794
786
804
832
848
850
851
832
809
801
799
800
794
783
783
784
794
792
782
790
787
789
816
825
807
785
787
800
796
792
791
776
760
751
768
784
796
808
816
821
818
802
796
800
808
815
818
820
808
789
792
825
845
829
815
805
814
824
803
789
780
779
781
779
776
769
771
784
800
812
809
786
763
753
763
787
804
812
821
828
821
806
793
790
800
810
802
787
769
753
738
732
739
741
732
747
761
767
765
756
732
708
701
697
702
714
727
734
720
710
731
772
816
874
953
1023
1023
1023
1023
1023
1023
1023
1023
1023
954
862
775
704
656
620
582
551
551
571
597
629
653
658
661
670
678
677
660
654
656
641
635
644
657
669
686
710
720
701
687
686
685
683
682
669
666
669
676
673
679
708
716
705
692
684
683
688
700
698
703
710
725
744
742
725
702
671
655
660
673
692
700
694
696
699
698
706
710
716
725
717
706
706
724
743
763
764
742
734
731
717
708
715
723
736
764
790
808
791
758
738
737
743
742
738
728
727
726
726
740
762
768
753
739
736
748
769
781
787
794
796
790
782
774
757
760
793
826
821
801
790
778
782
794
788
792
799
787
775
760
752
766
787
809
809
779
753
743
748
748
739
734
736
740
753
764
771
754
708
674
660
661
659
649
649
649
658
649
618
597
603
623
632
617
596
580
567
559
559
563
572
582
589
590
572
548
537
534
542
553
551
552
565
566
567
561
553
560
586
602
616
617
611
597
583
567
549
569
615
649
661
658
651
640
611
578
555
553
563
587
620
645
653
653
636
608
597
604
612
623
641
652
650
657
663
649
622
607
613
634
649
657
663
666
665
632
584
570
590
621
633
644
648
641
631
621
620
634
640
645
647
652
659
660
658
645
652
671
687
680
652
612
585
586
589
585
581
588
601
607
624
640
645
658
683
708
707
680
642
622
621
617
620
627
618
608
623
637
644
631
617
608
591
584
594
620
642
641
631
620
604
593
602
623
635
644
653
657
653
641
645
666
693
712
718
712
692
661
616
592
592
597
596
592
598
611
619
627
628
604
594
617
637
645
643
629
608
608
616
629
640
639
631
633
638
667
689
673
657
660
659
665
671
678
677
655
616
594
592
590
587
575
569
594
625
643
639
627
632
636
634
636
623
612
611
612
612
617
631
644
653
645
630
610
597
588
593
603
604
603
601
609
639
654
641
636
655
678
679
660
643
626
606
586
580
577
569
577
606
637
662
665
649
647
651
661
673
685
683
670
658
653
654
661
663
646
625
608
587
586
597
613
614
598
593
601
618
628
636
655
676
686
683
670
655
630
605
601
604
618
632
653
659
659
663
665
664
658
644
639
635
638
634
620
598
582
582
603
614
607
595
589
591
601
617
606
588
588
600
603
589
581
587
597
615
621
630
643
642
625
615
596
579
581
601
609
605
607
622
640
649
641
625
616
624
628
606
593
601
622
637
657
670
658
648
661
671
669
670
676
679
684
689
665
625
606
604
619
644
656
660
671
690
703
698
688
673
667
663
655
647
629
614
608
612
628
638
638
639
645
657
663
667
660
657
648
634
627
605
582
562
543
540
570
616
658
649
641
652
678
732
818
902
976
1023
1023
1023
1023
1023
1003
946
879
803
723
646
574
503
462
452
455
467
487
511
531
541
538
535
541
556
565
555
543
531
513
506
520
537
536
539
546
581
617
623
599
560
528
517
527
552
572
586
606
615
603
583
583
601
611
612
604
598
596
602
613
622
646
658
640
617
603
599
589
600
627
626
618
633
648
653
663
669
648
621
607
615
624
615
613
622
641
661
674
681
676
653
628
612
594
581
590
602
614
632
647
657
660
657
654
654
657
668
665
659
654
644
637
639
652
663
675
680
676
681
697
705
691
680
692
696
690
680
671
689
727
751
752
748
750
749
748
741
735
725
704
676
669
680
682
677
670
671
691
714
728
719
698
675
658
655
643
623
600
585
587
578
577
589
597
591
573
565
560
536
513
494
471
465
468
465
463
462
454
448
431
409
413
434
449
447
441
453
468
476
478
473
455
426
405
430
469
488
492
491
485
467
456
465
465
468
487
508
515
504
496
484
480
474
471
492
517
533
524
508
506
504
506
506
499
483
474
480
491
507
524
530
540
544
530
521
528
539
550
557
559
565
571
562
551
533
521
519
514
505
506
512
530
551
568
566
554
534
516
503
494
477
465
476
497
527
551
555
537
532
539
551
553
536
503
482
474
474
472
486
516
530
528
517
508
517
519
528
536
523
502
500
499
491
478
456
458
473
496
525
538
530
525
526
531
536
526
531
552
573
559
519
489
477
469
473
493
509
522
518
500
485
487
504
522
538
547
533
529
538
550
560
561
550
536
516
510
509
509
527
542
527
499
484
483
504
533
532
517
522
526
521
530
549
566
569
566
575
581
583
583
566
546
534
533
527
530
536
542
540
540
544
551
558
550
542
545
549
558
557
535
512
526
563
588
605
610
595
579
566
570
585
586
572
552
541
540
549
563
560
564
581
587
579
583
594
587
570
557
546
550
551
549
556
564
572
575
565
549
548
559
587
601
589
594
608
611
581
562
569
574
555
530
523
532
542
552
555
551
558
572
577
581
567
547
546
554
556
556
534
515
524
527
520
512
521
564
599
615
620
596
569
551
551
557
544
518
505
521
529
524
523
534
562
586
582
556
540
545
562
566
564
564
554
557
575
586
583
589
586
587
593
590
574
564
542
518
523
547
570
577
565
549
551
560
573
585
598
605
598
593
598
599
595
581
571
568
560
547
545
546
551
574
588
583
585
604
613
608
590
573
566
559
559
555
545
544
559
577
599
624
624
609
592
568
545
528
518
512
512
516
527
537
542
548
541
531
542
560
576
584
575
549
523
501
486
502
554
614
670
734
808
878
933
967
970
953
932
876
812
754
701
653
600
516
431
371
337
316
302
304
312
338
368
395
418
439
456
461
461
454
458
478
493
484
471
472
479
480
464
430
420
434
453
475
484
480
465
479
510
539
560
568
542
505
479
460
451
439
443
454
467
484
501
513
524
529
521
527
542
543
534
524
519
512
507
500
495
487
489
503
535
569
598
607
601
588
554
522
502
498
490
488
505
525
531
524
524
536
550
552
550
558
561
537
514
506
517
539
550
547
549
562
579
590
590
588
613
639
650
649
651
647
636
619
601
585
572
579
612
634
633
608
588
597
599
607
636
660
669
653
623
610
609
606
607
606
611
621
622
616
607
596
591
603
610
594
573
562
552
547
545
529
500
468
441
426
414
403
405
396
378
361
347
343
366
394
408
425
429
418
423
413
391
381
374
350
320
312
343
369
361
353
359
376
390
383
376
373
364
353
332
303
286
293
314
352
399
440
460
461
447
439
451
450
422
402
394
392
395
403
410
417
423
432
428
424
422
421
426
434
445
450
445
437
429
424
435
444
443
438
439
456
472
470
458
458
465
458
446
434
424
419
423
430
451
478
495
495
491
481
467
459
463
463
458
456
448
438
424
430
460
484
495
490
471
447
443
450
444
430
437
460
475
473
476
487
494
494
491
478
475
478
485
499
504
502
488
478
483
500
502
480
467
483
510
519
505
491
481
475
483
481
478
472
487
496
478
451
451
474
517
540
532
526
516
497
485
486
481
468
446
447
475
484
485
509
553
567
536
512
501
492
478
450
435
443
472
495
499
516
527
514
473
428
427
447
457
470
490
516
534
550
552
542
522
507
498
482
475
464
466
477
483
498
508
504
493
490
496
502
490
475
472
478
481
486
486
473
475
485
483
478
482
481
472
466
472
492
512
533
511
471
451
451
463
481
500
520
532
529
531
524
499
475
471
475
482
479
487
507
528
528
517
511
505
489
470
477
500
514
519
506
492
498
494
464
448
454
467
472
470
465
482
495
496
495
494
487
481
469
460
455
450
455
458
456
464
480
501
504
489
469
457
461
489
494
478
483
481
465
454
462
467
476
478
476
492
515
519
504
482
472
481
502
521
530
524
506
506
520
528
506
481
472
470
477
487
494
488
480
483
489
500
509
514
526
545
556
547
546
530
506
491
483
488
501
527
544
537
537
548
554
571
608
630
632
618
581
545
523
516
523
523
525
533
529
529
540
554
564
575
575
574
552
537
537
536
535
535
531
540
556
549
547
546
540
540
543
548
548
538
531
523
525
518
494
493
507
515
513
515
518
508
495
483
482
488
500
523
564
597
625
672
749
847
943
1018
1023
1023
985
912
859
802
717
638
575
507
437
388
369
368
366
371
391
414
431
446
453
457
464
472
472
464
444
432
450
461
459
463
464
479
491
491
493
493
486
480
477
483
494
484
469
463
466
472
474
471
476
483
479
483
497
515
517
517
508
497
502
505
504
518
508
501
505
510
507
506
510
519
535
544
547
544
543
553
551
541
541
542
529
504
482
498
531
545
542
555
578
589
579
570
566
548
550
581
591
609
631
650
664
643
594
552
533
525
533
550
565
583
599
618
627
610
600
594
596
603
599
595
605
621
644
653
659
675
691
693
676
635
603
612
640
661
657
642
621
616
625
628
632
640
661
684
685
654
614
596
601
610
610
600
588
579
573
569
559
542
535
528
514
495
462
429
427
454
475
473
448
426
406
380
361
356
367
396
416
430
438
436
416
391
403
408
400
379
352
345
351
360
390
425
424
405
407
424
436
437
435
434
432
415
380
363
387
427
450
448
433
422
430
456
472
479
477
468
455
431
422
437
458
466
470
467
466
477
498
517
536
548
551
533
494
451
423
411
417
430
450
462
464
471
485
487
478
481
487
496
508
510
505
506
489
452
430
443
475
500
522
526
512
496
500
506
517
522
508
498
501
505
517
518
515
514
513
516
518
514
508
505
503
509
526
542
551
537
514
497
492
485
474
462
472
496
528
542
525
506
502
509
522
537
547
546
532
511
504
498
493
491
493
492
501
524
527
520
516
512
513
519
515
507
500
476
468
498
526
544
550
547
536
523
515
508
504
516
524
520
520
519
529
540
540
525
511
518
517
513
512
505
491
479
494
537
556
541
525
509
491
476
487
520
541
550
542
517
501
499
494
493
499
507
516
523
536
550
557
556
535
517
524
539
552
553
544
518
501
497
493
506
529
534
532
518
505
509
512
519
529
532
540
545
542
536
517
494
483
490
499
507
531
551
561
561
563
565
564
562
551
538
535
538
548
553
541
525
513
507
523
541
553
578
621
636
624
592
542
515
513
522
540
562
550
538
538
530
525
540
559
573
577
572
575
579
578
574
562
548
540
531
523
536
552
553
546
535
534
549
566
565
553
559
565
543
516
500
517
543
568
568
564
560
556
560
571
580
578
587
606
601
578
564
546
533
524
521
530
532
520
504
505
529
557
565
568
580
566
555
547
537
533
524
522
529
543
561
574
580
587
599
606
591
562
528
504
521
553
580
591
598
603
589
580
575
578
586
587
587
582
576
572
569
551
530
522
519
521
515
506
507
510
522
530
538
524
509
520
536
545
551
545
530
521
509
493
487
491
497
500
497
501
495
497
506
543
616
690
752
800
852
909
965
1002
1005
971
912
845
767
680
607
559
502
438
381
357
354
381
421
445
466
483
479
471
479
490
488
489
504
516
536
550
553
557
548
537
533
521
508
491
476
474
493
519
538
551
551
542
527
520
520
520
495
470
487
517
545
559
546
517
509
523
540
554
555
554
548
537
529
526
535
540
541
555
558
549
549
554
562
586
615
627
594
545
526
539
557
561
562
568
562
554
559
561
573
586
590
593
588
573
578
576
574
582
592
588
574
569
575
573
580
586
595
596
592
598
601
606
622
636
657
684
699
689
665
656
647
624
615
622
629
644
657
669
668
656
641
637
652
666
671
682
682
681
676
650
642
652
656
663
659
632
607
604
602
593
584
576
572
573
567
559
550
532
512
483
458
450
449
449
451
433
427
454
468
461
441
411
387
376
378
388
410
423
412
409
411
415
415
405
397
396
399
411
420
430
430
385
341
348
383
401
407
413
408
403
397
386
412
449
480
504
510
497
476
460
452
449
457
471
472
471
467
458
446
433
433
446
468
489
491
487
473
463
450
440
449
463
468
479
487
504
509
507
502
491
494
503
518
526
527
522
513
513
511
511
518
517
519
525
526
531
525
521
521
509
492
479
468
468
476
492
498
485
464
462
474
500
537
544
520
492
478
485
484
493
499
495
502
505
494
480
463
459
474
494
509
518
521
522
529
528
538
538
534
533
525
524
529
540
527
501
494
493
501
517
519
498
470
445
437
445
455
467
482
493
510
525
520
501
492
494
490
504
527
545
558
546
528
531
532
515
500
487
494
506
507
502
509
519
515
499
497
509
527
544
552
548
533
517
492
486
491
487
495
511
520
517
510
505
511
523
535
546
541
535
560
573
556
530
505
494
489
491
476
461
478
519
538
542
531
533
540
545
546
542
546
542
530
515
513
522
541
547
541
534
530
534
529
505
503
509
514
516
510
524
550
546
528
511
506
513
518
515
510
519
536
536
528
520
504
498
509
524
539
559
564
544
524
520
536
547
539
522
498
485
489
507
524
526
508
510
523
522
510
507
520
538
536
523
513
508
511
509
494
487
475
469
470
465
492
536
565
572
559
547
532
525
512
499
499
519
543
544
541
525
487
478
487
509
535
528
529
550
561
548
535
540
558
557
519
484
485
495
512
528
540
553
558
554
564
581
590
587
567
547
546
550
543
551
576
589
586
573
568
578
573
571
581
591
576
554
536
517
514
513
505
503
508
523
528
524
531
554
571
561
536
520
524
549
582
596
596
571
532
499
476
463
465
468
467
470
480
489
479
482
511
533
537
545
553
578
635
697
752
822
907
972
991
960
911
853
783
717
655
578
498
426
371
343
336
332
344
365
367
363
381
406
412
395
383
394
404
404
404
410
411
406
433
470
495
498
474
435
419
425
418
406
428
462
477
474
473
469
463
461
465
472
475
466
455
458
472
487
492
484
487
493
496
475
455
472
487
478
468
455
462
489
523
546
555
550
520
491
491
497
504
499
491
474
460
456
480
503
495
502
511
501
497
519
529
530
530
524
520
512
526
564
599
591
559
531
513
519
531
543
549
565
582
575
572
587
601
607
607
614
618
617
620
615
590
569
555
559
580
605
619
620
613
604
596
590
618
632
641
646
649
630
606
591
575
551
556
577
582
570
568
589
610
611
587
548
507
479
468
461
450
444
450
436
413
412
422
423
423
433
438
433
405
370
361
378
400
410
400
386
373
348
342
347
323
305
317
341
371
384
368
360
372
382
378
377
384
395
407
419
421
442
465
471
455
430
407
385
370
369
392
417
434
435
429
422
431
450
458
456
451
436
436
451
458
459
456
443
445
463
473
475
473
469
466
458
453
462
465
476
465
447
446
455
451
437
439
445
437
426
417
430
445
454
459
453
446
450
458
473
473
452
437
437
449
453
453
456
454
443
439
437
446
460
459
457
459
469
485
483
461
446
449
445
412
396
411
431
447
455
473
482
469
461
467
461
476
488
501
502
504
488
453
432
442
458
475
486
488
492
509
509
490
476
460
446
459
478
477
475
467
461
470
491
486
480
478
487
483
451
439
440
455
462
449
448
455
464
477
483
496
513
518
514
509
505
493
479
465
464
480
503
517
504
491
493
499
508
514
526
514
494
490
501
512
502
480
453
441
447
461
477
498
499
490
484
482
488
488
494
504
501
484
473
471
473
491
507
520
526
513
518
523
516
504
482
467
483
502
492
488
498
511
521
523
541
564
569
568
562
557
539
510
505
503
478
459
457
459
470
491
512
510
499
503
530
545
540
518
511
519
529
527
516
514
510
509
514
522
535
547
538
518
494
477
481
512
541
569
571
557
548
528
511
511
514
511
504
503
518
532
547
539
534
539
525
513
505
496
487
496
522
536
553
560
536
521
525
534
533
518
520
542
551
541
520
505
514
516
500
493
500
520
544
564
565
560
557
548
535
508
501
508
511
506
501
501
500
516
539
556
554
533
505
484
479
484
503
512
517
513
518
540
550
542
528
520
522
544
560
570
577
567
549
538
529
516
520
532
549
559
555
555
584
612
624
610
588
559
530
510
519
541
543
520
516
533
561
589
593
595
605
608
607
595
572
556
550
551
555
547
541
539
530
518
513
512
512
517
522
523
544
577
579
559
544
528
521
508
491
472
468
486
500
518
548
586
635
699
775
850
920
981
1023
1023
1006
944
859
784
733
678
608
536
475
445
432
423
409
393
411
441
447
440
437
443
454
458
456
443
440
446
452
452
457
471
477
481
477
460
446
453
461
460
464
459
458
484
490
496
524
545
544
523
488
463
447
443
453
462
471
483
501
532
550
549
540
528
523
526
525
530
526
515
511
515
497
466
452
469
509
548
572
574
560
552
552
539
516
500
518
560
572
571
574
580
574
560
555
558
564
563
543
545
563
574
585
587
582
582
570
552
533
530
557
587
602
611
615
612
614
621
624
622
619
626
627
621
623
622
621
623
635
648
657
664
665
658
657
665
677
696
690
671
648
621
621
630
626
623
635
650
639
618
605
600
595
596
588
576
569
555
538
523
507
492
478
471
457
430
416
426
447
453
448
439
428
413
399
402
419
427
425
411
393
387
381
371
369
382
382
367
365
389
418
430
423
414
411
413
404
398
403
413
419
422
431
425
426
428
429
437
449
449
443
434
428
422
423
417
417
431
436
438
444
464
474
472
463
445
443
461
478
485
481
466
455
453
463
478
490
485
472
452
432
444
488
513
517
514
498
483
490
497
494
482
476
460
453
439
426
433
449
464
475
489
497
498
495
491
491
484
479
492
503
501
486
460
445
438
439
460
492
515
519
497
466
433
425
444
470
474
478
483
501
510
500
488
478
471
474
481
503
527
513
509
521
524
518
508
510
509
499
496
496
483
475
474
465
464
476
495
501
487
487
496
507
523
531
512
472
447
461
485
487
473
475
487
492
494
495
492
481
468
469
475
477
491
509
527
536
523
510
508
506
507
516
511
481
465
470
486
520
545
555
550
534
502
482
465
469
487
498
504
519
526
520
501
501
512
515
522
528
539
542
515
506
515
526
527
523
510
504
495
500
523
540
537
546
558
547
525
517
505
480
469
486
523
548
548
548
543
525
515
516
530
541
544
546
551
556
545
550
564
550
533
530
538
538
531
532
537
522
492
467
470
492
521
545
564
587
591
561
527
528
541
553
548
536
528
543
566
571
558
532
514
514
518
522
530
536
535
531
532
540
548
564
566
551
537
519
508
505
506
515
523
533
549
572
586
577
564
559
529
490
467
466
481
517
547
547
547
555
570
579
564
539
522
512
518
538
557
569
560
553
570
588
577
563
552
552
554
549
543
549
555
566
574
573
574
571
566
546
537
534
540
563
578
567
549
541
535
523
515
513
523
539
537
531
546
564
566
560
554
546
551
561
569
566
549
546
555
556
561
569
571
568
552
553
565
581
602
606
604
600
591
575
558
546
528
510
499
498
509
531
543
555
575
573
568
556
539
518
496
467
456
473
500
514
519
517
497
483
481
497
517
525
531
546
552
560
590
634
684
747
827
911
976
1007
989
936
892
847
776
686
588
513
457
419
401
406
412
385
364
368
391
420
433
429
437
464
483
473
459
470
485
497
502
507
483
461
455
459
472
473
461
455
459
477
491
487
490
509
522
516
494
473
461
457
453
461
470
496
527
533
514
516
534
549
556
548
533
521
525
544
539
528
530
547
555
551
546
537
522
519
538
546
532
526
544
550
541
539
541
538
539
549
535
512
525
556
572
581
590
594
585
576
568
560
557
565
578
588
557
544
573
602
622
631
618
595
582
577
575
592
623
641
644
648
652
639
614
620
650
679
680
656
640
636
635
627
621
624
641
659
640
623
636
662
668
658
650
640
631
629
624
616
602
581
562
548
546
548
561
563
568
569
546
523
495
457
432
418
414
421
425
429
412
387
367
361
381
403
424
419
402
390
392
408
405
397
394
392
389
391
400
413
422
416
399
387
385
380
364
345
339
348
366
390
407
424
435
438
437
431
433
440
460
458
419
388
388
411
430
428
415
421
444
463
469
463
456
445
414
385
404
438
464
478
482
480
471
455
460
473
481
487
494
496
485
471
461
455
453
461
475
478
467
454
446
456
468
485
500
497
492
494
516
527
523
514
479
448
441
453
467
467
459
464
471
471
482
500
511
511
494
483
473
456
446
462
498
525
529
518
495
473
462
470
489
496
496
506
516
520
522
506
468
452
465
492
517
532
527
519
524
524
523
524
504
489
485
484
502
504
495
483
481
497
518
524
503
491
486
493
494
487
485
487
507
527
521
522
526
514
496
493
500
502
505
506
503
521
528
518
507
509
518
521
521
509
498
496
503
507
506
510
517
524
521
518
515
505
495
484
464
449
468
491
487
474
470
476
492
522
560
582
560
508
463
449
460
477
494
502
501
505
505
492
483
487
490
500
503
494
478
465
456
458
460
462
469
481
492
504
510
504
493
479
484
494
499
514
521
514
498
492
478
463
467
476
483
500
515
516
508
510
521
511
476
450
453
454
452
454
477
496
500
494
490
503
517
509
491
481
478
470
470
473
471
477
489
509
529
528
524
510
497
497
486
469
462
461
474
486
481
475
491
528
544
523
487
478
484
493
480
470
480
489
489
486
488
494
488
482
497
513
507
500
493
482
484
510
527
543
550
526
495
488
483
476
480
473
473
469
462
453
446
470
499
520
525
504
495
492
490
494
501
505
501
496
513
537
557
568
560
553
536
516
502
499
497
494
493
500
515
513
517
530
535
518
513
527
540
525
491
461
459
464
468
473
489
496
496
495
494
499
503
508
516
510
492
485
492
515
524
507
487
481
484
476
467
463
462
466
477
473
465
474
502
545
587
637
690
736
801
854
879
896
909
891
851
819
772
710
634
552
472
410
374
355
340
340
367
402
420
420
422
428
445
464
470
459
442
437
432
446
471
466
443
428
432
438
441
424
435
456
478
496
504
499
481
458
439
442
440
425
421
452
509
559
578
564
529
500
493
490
482
480
483
507
537
548
547
535
526
523
517
516
519
498
489
498
515
530
543
544
543
541
536
521
524
546
541
533
519
521
542
563
580
584
582
572
559
553
547
537
548
564
574
574
573
568
565
577
599
617
632
645
649
646
631
603
580
557
549
566
584
608
626
621
615
612
621
622
620
619
623
627
640
666
689
682
651
635
630
632
631
636
636
622
617
617
616
622
615
603
584
560
554
561
568
567
562
552
545
530
500
485
493
509
512
495
463
426
407
394
388
389
382
379
374
374
392
408
409
387
359
347
347
351
366
385
384
383
384
377
372
368
380
399
414
429
428
419
417
416
420
421
410
411
412
406
397
392
407
420
410
402
405
413
424
432
441
443
436
410
396
411
437
454
469
494
528
539
519
492
469
471
483
473
467
459
456
466
467
461
461
454
458
480
495
496
502
514
523
502
478
474
479
488
489
475
448
441
457
480
499
511
526
532
525
514
506
506
509
511
524
554
569
553
531
516
491
466
454
455
463
485
488
485
495
494
498
507
508
517
508
483
484
499
514
525
526
520
511
507
504
508
509
502
499
505
510
512
525
545
530
506
490
487
495
504
501
499
492
479
474
474
491
503
505
507
511
535
574
584
566
537
514
510
511
510
508
519
529
541
544
542
542
543
538
547
565
573
570
553
522
488
472
473
487
493
495
513
534
540
538
542
535
516
509
527
540
553
545
530
508
504
510
500
491
499
511
529
541
544
544
543
552
555
550
533
515
502
485
499
519
542
567
565
541
515
496
486
488
504
523
539
551
553
543
542
558
562
556
535
515
517
516
502
485
477
476
486
497
498
499
501
519
535
536
533
550
551
544
529
511
505
504
496
496
510
524
535
549
568
579
574
561
542
529
529
521
504
485
460
451
481
500
499
505
506
506
524
531
519
515
515
516
517
531
525
495
482
484
498
510
514
515
523
522
516
506
495
501
518
525
532
535
518
515
529
526
510
497
511
536
564
568
530
514
513
511
514
508
500
516
532
527
531
543
536
493
471
465
463
479
502
520
535
542
540
536
540
532
532
536
530
538
542
546
542
534
528
522
516
506
500
515
542
569
587
581
572
554
553
549
535
534
527
518
529
538
531
536
542
553
553
539
535
542
530
518
531
540
538
525
512
516
527
552
578
592
584
560
544
538
535
525
521
531
523
506
503
500
496
498
504
504
491
477
466
460
473
492
491
472
461
454
452
453
444
456
515
582
611
629
678
762
861
943
986
1004
998
964
919
857
768
672
601
540
483
438
405
377
349
331
344
373
390
394
402
420
427
420
414
410
418
434
447
444
430
425
436
449
456
466
476
469
466
476
491
504
510
495
465
451
459
484
503
478
455
470
475
468
462
469
474
474
481
479
478
494
505
512
517
523
519
513
503
489
479
489
499
494
496
507
521
539
548
536
522
525
537
528
518
521
517
513
534
545
541
540
539
545
549
555
563
568
573
575
570
560
570
587
588
582
586
587
595
596
578
562
560
577
603
624
637
629
617
610
596
598
619
627
628
638
642
640
635
627
625
629
635
653
675
689
694
685
665
653
641
638
658
673
667
653
627
611
595
572
559
562
548
536
554
563
558
562
554
527
511
505
505
495
477
470
472
454
424
399
379
370
370
384
393
394
390
395
392
388
391
388
372
353
348
359
377
383
361
350
370
392
388
373
369
368
374
392
383
369
366
379
398
413
430
441
445
446
435
424
413
409
409
408
415
425
433
430
424
420
424
433
449
462
476
491
499
486
464
453
460
470
464
452
457
454
445
458
473
470
446
417
405
427
452
462
487
502
496
502
516
534
540
525
495
489
494
498
493
485
490
497
493
479
476
486
492
489
485
469
460
449
459
491
518
509
499
487
468
451
452
465
479
491
502
515
527
529
499
458
433
430
469
510
517
508
506
517
521
514
493
467
459
463
476
488
486
481
496
514
508
498
499
504
516
523
526
518
495
480
466
435
425
446
474
489
503
515
525
534
516
487
487
495
491
500
504
504
506
503
491
497
492
471
470
495
508
500
494
496
506
512
518
528
513
514
530
544
541
531
518
506
496
493
500
486
468
469
493
517
534
542
547
538
527
529
523
517
513
512
524
522
510
499
506
516
512
500
500
495
461
434
447
488
527
556
572
578
588
594
581
561
553
546
538
528
514
503
512
512
495
501
532
553
564
550
548
535
530
525
513
514
520
527
514
493
492
524
563
590
588
570
557
550
541
540
545
554
544
529
537
540
552
577
608
600
553
515
506
519
532
543
553
551
552
547
548
559
559
545
532
520
507
516
530
544
556
557
565
578
580
573
559
550
546
521
493
492
521
560
581
576
562
542
539
551
554
556
548
532
519
531
556
575
576
541
530
540
559
572
557
523
512
527
542
553
565
578
589
584
565
553
546
543
561
579
593
601
601
594
594
601
590
579
567
561
573
583
578
570
566
562
573
585
590
589
585
568
554
568
583
584
560
530
510
485
500
534
559
571
558
539
530
533
536
534
523
512
510
523
540
547
524
498
505
535
568
605
644
683
734
810
897
954
993
1005
963
891
822
763
701
626
548
460
384
349
339
335
344
355
392
430
457
471
465
452
436
442
452
452
450
451
444
443
447
449
464
490
502
493
477
467
448
435
438
454
467
463
463
468
470
483
498
510
512
518
522
516
502
482
464
449
457
480
505
516
525
539
532
515
506
501
488
477
474
475
484
503
518
522
518
504
487
472
467
476
486
501
517
527
546
549
542
548
536
518
505
494
473
461
480
525
560
573
574
568
571
559
555
545
525
524
531
526
514
522
552
570
580
582
574
570
583
591
591
585
583
590
597
601
602
599
593
602
614
610
603
598
595
603
607
589
579
589
610
643
651
655
660
661
643
607
566
539
520
517
514
507
516
523
513
501
491
482
479
477
469
460
452
437
420
423
429
433
432
419
399
375
351
334
329
307
276
274
293
325
347
360
378
394
397
375
352
344
351
354
367
381
386
383
376
381
373
380
397
407
411
409
417
429
426
411
395
401
411
410
389
368
370
371
364
365
388
417
416
408
412
430
449
459
451
428
412
423
434
438
457
459
444
453
468
475
467
471
484
483
484
487
479
477
470
449
424
432
462
485
491
482
455
434
423
424
433
440
435
433
430
426
444
467
481
492
501
502
493
480
470
482
503
506
496
483
476
470
463
472
485
491
498
496
483
481
491
504
518
514
495
474
449
425
421
445
475
477
467
467
477
478
476
478
469
472
495
514
506
489
484
478
479
481
472
461
458
452
457
470
482
487
483
487
494
497
498
490
487
481
482
490
496
503
518
526
535
531
507
484
472
471
474
473
481
491
489
489
488
485
491
492
471
447
444
466
486
491
495
513
517
513
518
515
499
482
457
448
483
508
508
504
510
504
493
477
455
459
486
507
502
478
473
474
469
468
482
498
503
494
477
475
482
480
481
486
487
505
517
521
518
507
514
514
493
491
503
523
525
516
515
515
501
478
467
478
480
469
462
479
507
530
534
530
526
520
518
509
503
526
551
567
570
542
506
495
496
495
491
499
509
501
491
491
495
489
487
497
506
505
511
532
548
558
548
524
513
507
506
507
508
514
518
502
484
483
482
486
490
491
494
506
522
527
534
540
536
504
473
473
485
504
540
575
572
542
507
484
465
467
494
525
551
573
581
555
543
558
565
553
547
539
505
487
491
476
465
474
498
526
539
532
520
510
507
508
515
530
542
538
515
498
514
534
538
535
528
529
539
544
546
545
541
535
522
502
491
492
498
513
530
511
494
503
505
494
482
475
469
463
451
449
445
448
462
493
554
618
675
740
802
873
926
961
983
969
935
878
798
715
642
585
515
456
417
378
352
354
367
382
405
439
461
478
482
463
454
442
427
422
424
411
404
418
440
462
488
500
494
465
441
431
425
427
423
418
429
452
468
478
477
470
481
493
501
516
503
478
473
482
489
488
486
487
487
498
516
527
532
515
509
504
506
512
497
491
504
517
522
523
524
535
535
501
468
458
466
484
503
529
542
553
559
547
527
515
508
516
539
554
562
569
565
565
562
557
563
574
565
539
527
525
538
555
569
588
608
619
611
592
587
588
593
622
651
658
634
602
590
597
604
623
638
631
628
644
661
669
665
656
647
639
632
632
651
660
657
640
613
611
615
615
597
573
561
563
565
554
537
524
523
516
511
510
518
523
521
509
485
458
431
424
420
416
406
392
388
387
385
381
386
395
397
390
385
390
394
397
400
407
407
407
403
392
384
387
376
375
375
371
372
404
433
453
458
456
445
431
424
407
385
375
391
415
415
414
418
423
431
442
461
470
454
458
478
483
474
445
426
430
435
445
470
493
494
487
479
465
463
461
467
484
500
505
509
512
504
503
504
504
504
503
492
476
475
464
445
447
458
461
453
437
439
458
468
475
486
498
504
512
525
535
540
539
522
499
491
507
526
531
519
519
527
522
516
511
500
495
509
519
497
477
482
515
517
492
493
503
510
501
485
478
491
500
506
505
525
531
508
493
497
520
541
542
537
526
529
521
496
497
510
518
525
533
530
522
513
500
498
508
503
492
487
499
500
509
512
502
496
492
488
485
495
505
527
541
548
558
560
539
506
495
514
529
523
524
538
558
550
532
505
484
501
525
514
516
536
543
547
548
543
533
527
522
532
541
530
512
512
514
528
541
537
528
514
514
509
510
515
512
513
523
550
579
566
550
544
529
537
549
540
537
549
549
540
535
516
486
488
505
524
529
523
516
519
520
519
527
532
520
498
486
493
514
534
527
510
501
509
509
521
537
544
545
541
544
554
561
551
542
541
525
521
525
519
507
492
478
487
505
513
517
522
531
549
561
520
484
473
488
503
524
542
545
526
505
509
527
542
533
518
511
515
516
511
510
512
512
519
519
516
527
535
531
534
538
529
501
471
466
478
499
522
537
546
540
531
525
527
539
524
494
496
497
485
495
504
502
498
490
491
507
532
538
546
550
542
537
541
538
529
536
539
526
508
493
480
486
507
541
576
591
578
542
524
517
519
529
532
532
534
529
521
525
533
540
524
506
502
515
549
581
594
583
550
528
536
564
585
590
591
581
569
548
523
499
478
484
504
508
503
504
508
509
512
524
541
530
498
498
507
501
494
483
487
498
501
503
514
539
570
606
670
747
817
867
906
949
989
1008
978
917
852
765
665
588
515
452
412
374
350
353
348
339
351
370
397
426
440
451
462
452
446
443
443
445
447
461
468
469
477
472
471
469
463
455
446
440
446
463
475
479
480
487
507
525
526
509
488
478
477
471
473
486
499
507
513
519
521
517
502
499
511
522
523
521
514
507
504
500
509
514
513
534
564
559
538
523
507
497
509
522
523
526
529
530
540
560
571
576
572
550
535
539
547
561
584
605
606
584
561
538
520
524
543
575
590
599
613
614
595
585
588
591
599
615
616
618
608
595
598
617
642
657
660
656
655
651
640
624
626
629
639
646
646
641
646
645
644
640
619
587
571
583
590
554
523
541
579
588
589
591
596
573
547
534
524
510
495
471
446
443
447
443
429
409
404
410
414
404
387
381
384
381
384
396
403
397
373
356
349
342
341
354
383
386
357
333
343
370
403
428
436
438
433
430
434
434
423
422
424
420
410
408
407
396
402
416
428
437
454
467
467
456
439
432
436
433
433
429
426
447
459
460
476
477
470
475
470
457
454
466
478
498
524
516
498
490
500
513
509
498
486
477
474
495
531
546
537
523
526
542
528
503
486
481
490
506
506
506
505
493
499
521
527
510
490
489
493
494
485
474
481
495
512
525
507
493
497
522
534
529
520
520
530
539
548
557
541
513
492
498
500
493
486
465
466
483
491
499
530
553
539
530
535
546
547
536
520
509
496
480
480
489
488
502
512
515
522
521
514
524
541
548
549
554
546
530
523
528
525
521
527
532
524
507
503
517
511
504
512
525
527
528
521
513
519
525
536
547
542
535
517
506
533
556
549
521
464
445
470
496
511
528
548
547
532
528
533
549
554
543
526
519
521
509
493
496
515
527
540
535
523
542
562
575
574
560
542
528
522
508
493
500
518
536
551
549
546
547
546
510
467
461
496
550
587
591
586
585
587
579
559
547
569
593
601
604
596
582
564
535
494
453
446
467
470
473
488
495
486
479
464
462
458
492
533
543
503
468
483
529
586
630
654
639
605
593
539
453
385
350
322
292
265
229
183
136
84
52
33
21
13
9
6
4
3
3
2
2
1
1
1
1
1
1
1
1
1
1
1
1
1
1
1
1
1
1
1
1
1
1
1
1
1
1
1
1
1
1
1
1
1
1
1
1
1
1
1
1
1
1
1
1
1
1
1
1
1
1
1
1
1
1
1
1
1
1
1
1
1
1
1
1
1
1
0
1
1
1
1
1
1
1
1
1
1
1
1
1
1
1
1
1
1
1
1
1
1
0
1
1
1
0
1
1
1
1
1
1
1
1
0
1
1
1
1
1
1
1
1
1
1
1
1
1
1
1
1
0
0
1
1
1
1
1
1
1
1
1
1
1
1
1
1
1
1
1
1
1
1
1
1
0
1
1
1
1
1
1
1
1
1
1
1
1
1
1
1
1
1
1
1
1
1
1
1
1
1
1
1
1
0
0
1
1
1
1
1
1
1
1
1
1
0
1
1
1
0
1
1
1
1
1
1
1
1
1
1
1
1
1
1
1
0
1
1
1
0
1
1
1
0
1
1
1
1
1
1
1
1
1
1
1
1
1
0
0
1
1
33
151
302
459
607
739
850
944
1023
1023
1023
1023
1023
1023
1023
1023
1023
1023
1023
1023
1023
1023
1023
1023
1023
1023
1023
1023
1023
1023
1023
1023
1023
1023
1023
1023
1023
1023
1023
1023
1023
1023
1023
1023
1023
1023
1023
1023
1023
1023
1023
1023
1023
1023
1023
1023
1023
1023
1023
1023
1023
1023
1023
1023
1023
1023
1023
1023
1023
1023
1023
1023
1023
1023
1023
1023
1023
1023
1023
1023
1023
1023
1023
1023
1023
1023
1023
1023
1023
1023
1023
1023
1023
1023
1023
1023
1023
1023
1023
1023
1023
1023
1023
1023
1023
1023
1023
1023
1023
1023
1023
1023
1023
1023
1023
1023
1023
1023
1023
1023
1023
1023
1023
1023
1023
1023
1023
1023
1023
1023
1023
1023
1023
1023
1023
1023
1023
1023
1023
1023
1023
1023
1023
1023
1023
1023
1023
1023
1023
1023
1023
1023
1023
1023
1023
1023
1023
1023
1023
1023
1023
1023
1023
1023
1023
1023
1023
1023
1023
1023
1023
1023
1023
1023
1023
1023
1023
1023
1023
1023
1023
1023
1023
1023
1023
1023
1023
1023
1023
1023
1023
1023
1023
1023
1023
1023
1023
1023
1023
1023
1023
1023
1023
1023
1023
1023
1023
1023
1023
1023
1023
1023
1023
1023
1023
1023
1023
1023
1023
1023
1023
1023
1023
1023
1023
1023
1023
1023
1023
1023
1023
1023
1023
1023
1023
1023
1023
1023
1023
1023
1023
1023
1023
1023
1023
1023
1023
1023
1023
1023
1023
1023
1023
1023
1023
1023
1023
1023
1023
1023
1023
1023
1023
1023
1023
1023
1023
1023
1023
1023
1023
1023
1023
1023
1023
1023
1023
1023
1023
1023
1023
1023
1023
1023
1023
1023
1023
1023
1023
1023
1023
1023
1010
983
952
918
883
847
812
779
749
722
695
666
633
597
562
529
500
477
456
436
414
387
356
322
286
251
219
188
159
128
93
58
36
23
15
10
7
5
4
3
2
2
2
1
1
1
1
1
1
1
1
1
1
1
1
1
1
1
1
1
1
1
1
1
1
1
1
1
1
1
1
1
1
1
1
1
1
1
1
1
1
1
1
1
1
1
1
1
1
1
1
1
1
1
1
1
1
1
1
1
1
1
1
1
1
1
1
1
1
0
1
1
1
1
1
1
1
1
1
1
1
1
1
1
1
1
1
1
1
1
1
1
1
1
1
1
1
1
1
1
1
1
1
1
1
1
1
1
1
1
1
1
1
1
1
1
1
1
1
1
1
1
1
1
1
1
1
1
1
1
1
1
1
1
1
1
1
1
1
1
1
1
1
1
1
1
1
1
1
1
1
1
1
1
1
1
1
1
0
1
1
1
1
1
1
15
81
172
271
372
474
576
675
769
856
940
1021
1023
1023
1023
1023
1023
1023
1023
1023
1023
1023
1023
1023
1023
1023
1023
1023
1023
1023
1023
1023
1023
1023
1023
1023
1023
1023
1023
1023
1023
1023
1023
1023
1023
1023
1023
1023
1023
1023
1023
1023
1023
1023
1023
1023
1023
1023
1023
1023
1023
1023
1023
1023
1023
1023
1023
1023
1023
1023
1023
1023
1023
1023
1023
1023
1023
1023
1023
1023
1023
1023
1023
1023
1023
1023
1023
1023
1023
1023
1023
1023
1023
1023
1023
1023
1023
1023
1023
1023
1023
1023
1023
1023
1023
1023
1023
1023
1023
1023
1023
1023
1023
1023
1023
1023
1023
1023
1023
1023
1023
1023
1023
1023
1023
1023
1023
1023
1023
1023
1023
1023
1023
1023
1023
1023
1023
1023
1023
1023
1023
1023
1023
1023
1023
1023
1023
1023
1023
1023
1023
1023
1023
1023
1023
1023
1023
1023
1023
1023
1023
1023
1023
1023
1023
1023
1023
1023
1023
1023
1023
1023
1023
1023
1023
1023
1023
1023
1023
1023
1023
1023
1023
1023
1023
1023
1023
1023
1023
1023
1023
1023
1023
1023
1023
1023
1023
1023
1023
1023
1023
1023
1023
1023
1023
1023
1023
1023
1023
1023
1023
1023
1023
1023
1023
1023
1023
1023
1023
1023
1023
1023
1023
1023
1023
1023
1023
1023
1023
1023
1023
1023
1023
1023
1023
1023
1023
1023
1023
1023
1023
1023
1023
1023
1023
1023
1023
1023
1023
1023
1023
1023
1023
1023
1023
1023
1023
1023
1023
1023
1023
1023
1023
1023
1023
1023
1023
1023
1023
1023
1023
1023
1023
1023
1023
1023
1023
1023
1023
1023
1023
1023
1023
1023
1023
1023
1023
1023
1023
1023
1023
1023
1023
1023
1023
1023
1023
1023
1023
1023
1023
1023
1023
1023
1023
1023
1023
1023
1023
1023
1023
1023
1023
1023
1023
1023
1023
1023
1023
1023
1023
1023
1023
1023
1023
1023
1023
1023
1023
1023
1023
1023
1023
1023
1023
1023
1023
1023
1023
1023
1023
1023
1023
1023
1023
1023
1023
1023
1023
1023
1023
1023
1023
1023
1023
1023
1023
1023
1023
1023
1023
1023
1023
1023
1023
1023
1023
1023
1023
1023
1023
1023
1023
1023
1023
1023
1023
1023
1023
1023
1023
1023
1023
1023
1023
1023
1023
1023
1023
1023
1023
1023
1023
1023
1023
1023
1023
1023
1023
1023
1023
1023
1023
1023
1023
1023
1023
1023
1023
1023
1023
1023
1023
1023
1023
1023
1023
1023
1023
1023
1023
1023
1023
1023
1023
1023
1023
1023
1023
1023
1023
1023
1023
1023
1023
1023
1023
1023
1023
1023
1023
1023
1023
1023
1023
1023
1023
1023
1023
1023
1023
1023
1023
1023
1023
1023
1023
1023
1023
1023
1023
1023
1023
1023
1023
1023
1023
1023
1023
1023
1023
1023
1023
1023
1023
1023
1023
1023
1023
1023
1023
1023
1023
1023
1023
1023
1023
1023
1023
1023
1023
1023
1023
1023
1023
1023
1023
1023
1023
1023
1023
1023
1023
1023
1023
1023
1023
1023
1023
1023
1023
1023
1023
1023
1023
1023
1023
1023
1023
1023
1023
1023
1023
1023
1023
1023
1023
1023
1023
1023
1023
1023
1023
1023
1023
1023
1023
1023
1023
1023
1023
1023
1023
1023
1023
1023
1023
1023
1023
1023
1023
1023
1023
1023
1023
1023
1023
1023
1023
1023
1023
1023
1023
1023
1023
1023
1023
1023
1023
1023
1023
1023
1023
1023
1023
1023
1023
1023
1023
1023
1023
1023
1023
1023
1023
1023
1023
1023
1023
1023
1023
1023
1023
1023
1023
1023
1023
1023
1023
1023
1023
1023
1023
1023
1023
1023
1023
1023
1023
1023
1023
1023
1023
1023
1023
1023
1023
1023
1023
1023
1023
1023
1023
1023
1023
1023
1023
1023
1023
1023
1023
1023
1023
1023
1023
1023
1023
1023
1023
1023
1023
1023
1023
1023
1023
1023
1023
1023
1023
1023
1023
1023
1023
1023
1023
1023
1023
1023
1023
1023
1023
1023
1023
1023
1023
1023
1023
1023
1023
1023
1023
1023
1023
1023
1023
1023
1023
1023
1023
1023
1023
1023
1023
1023
1023
1021
1016
1015
1016
1015
1011
1003
992
978
965
956
950
947
947
948
944
936
923
910
897
886
880
879
879
877
872
865
853
840
828
819
814
811
811
810
806
798
787
774
762
752
747
745
745
745
741
733
721
707
693
684
679
678
681
683
682
676
666
654
644
636
633
634
637
639
639
634
625
614
605
598
595
594
597
600
599
594
585
574
563
555
552
552
556
560
560
557
548
538
528
521
517
517
520
524
524
519
510
499
488
480
476
477
482
488
491
490
485
478
471
466
466
470
475
480
482
480
473
463
453
445
441
440
443
445
445
440
431
418
406
396
389
386
386
386
383
376
365
352
338
326
318
315
314
312
308
302
292
280
267
255
247
244
244
244
241
234
223
210
197
185
179
178
179
180
180
176
168
157
145
136
131
129
131
134
136
132
124
113
101
91
85
84
88
92
94
92
86
75
64
56
51
49
50
54
55
51
42
30
19
12
8
5
4
3
2
2
2
1
1
1
1
1
1
1
1
1
1
1
1
1
1
1
1
1
1
1
1
1
1
1
1
1
1
1
1
1
1
1
1
1
1
1
1
1
1
1
1
1
1
1
1
1
1
1
1
1
1
1
1
1
1
1
1
1
1
1
1
1
1
1
1
1
1
1
1
1
1
1
1
1
1
1
1
1
1
1
1
1
1
1
1
1
1
1
1
1
1
1
1
1
1
1
1
1
1
1
1
1
1
1
1
1
1
1
0
1
1
1
1
1
1
1
1
1
1
1
1
1
1
0
1
1
1
1
1
1
1
1
1
1
1
1
1
1
1
1
1
1
1
1
1
1
1
1
1
1
1
1
1
1
1
0
1
1
1
1
1
1
1
1
1
1
0
1
0
1
1
1
1
1
1
1
1
1
1
1
0
1
1
1
1
1
1
1
1
1
1
1
1
1
1
0
0
0
1
0
1
1
1
1
1
1
1
1
0
0
1
1
1
1
1
1
0
1
1
0
1
1
1
1
1
1
1
1
0
1
1
1
0
1
1
1
1
0
1
1
1
1
0
1
1
0
1
1
1
1
1
1
1
0
1
1
1
1
0
0
1
1
1
1
1
0
0
1
1
1
1
1
1
1
0
0
1
1
1
1
1
1
1
1
0
1
1
1
1
1
1
1
1
1
1
1
0
1
1
1
1
0
0
1
1
1
0
1
1
1
1
1
1
1
1
1
1
1
1
0
0
1
1
1
0
1
0
1
1
0
1
1
0
1
1
1
0
0
1
1
1
1
1
0
1
1
1
1
1
1
1
1
0
1
1
1
1
1
1
1
1
1
1
1
0
1
1
1
0
1
1
1
0
1
1
0
1
1
1
1
1
1
1
0
1
1
1
1
1
1
1
1
1
1
0
0
1
1
0
1
1
1
0
1
0
0
0
1
1
0
1
0
0
0
0
1
0
1
1
0
0
0
1
1
1
0
1
1
1
1
1
1
1
1
1
1
0
1
1
1
1
0
0
0
1
1
1
0
1
1
1
1
1
1
1
1
1
1
0
0
1
1
1
1
1
1
1
1
0
1
0
1
1
0
0
1
1
0
1
1
1
1
1
1
1
0
1
1
1
0
1
1
1
0
0
1
1
1
0
0
1
1
1
1
1
0
0
1
1
1
1
1
0
1
1
1
1
0
1
0
1
1
1
1
1
1
1
1
0
1
0
0
1
0
1
0
1
1
1
1
1
0
0
1
0
1
1
1
0
1
1
1
0
