1023
1023

0
1
0
0
1
0
1
1
0
0
0
0
1
0
1
0
1
0
0
0
1
0
0
0
1
0
0
0
0
1
0
0
0
0
0
1
0
0
1
1
0
0
0
0
0
1
0
0
0
0
0
1
0
1
1
1
1
1
0
0
0
1
0
0
0
1
0
1
1
1
1
1
1
1
0
1
1
1
1
1
1
1
1
1
1
1
0
0
1
1
1
1
1
0
0
1
0
1
1
0
1
1
0
1
1
0
1
1
0
0
0
1
1
0
1
1
0
0
1
1
1
1
1
1
0
1
0
1
0
1
1
1
1
0
0
0
0
1
1
0
1
1
1
0
0
1
0
0
0
1
0
1
1
0
0
1
1
0
1
1
1
0
1
0
1
1
1
1
1
0
1
1
1
0
1
1
0
1
1
0
1
1
0
0
1
1
1
0
0
1
1
1
0
0
0
1
0
0
0
1
0
1
1
1
1
0
0
1
1
1
1
1
1
1
1
1
0
1
1
1
1
0
0
0
1
1
0
0
0
0
0
1
0
0
0
0
1
1
1
0
1
0
1
1
1
1
0
1
1
0
0
0
0
0
1
1
1
1
0
0
1
1
0
1
1
1
0
1
0
1
0
0
1
0
1
1
1
0
1
0
0
0
1
0
0
1
1
1
1
1
1
1
0
1
1
0
1
1
1
1
1
1
0
1
1
0
1
0
0
0
1
1
1
0
1
0
0
0
0
1
0
1
0
1
0
0
0
0
0
1
1
1
0
1
1
0
0
1
1
0
1
1
0
1
1
0
1
1
0
0
0
1
1
1
0
0
0
0
0
0
1
1
1
1
0
1
1
0
1
0
1
1
0
1
0
0
1
1
0
0
1
1
1
1
1
0
1
1
0
1
0
0
0
1
1
0
0
0
0
0
1
1
0
0
1
1
0
0
1
1
0
0
0
1
1
0
0
1
1
1
1
1
0
1
1
1
1
1
0
1
0
0
1
1
0
1
0
1
1
1
0
0
0
0
0
1
0
1
0
0
1
0
0
0
0
1
0
1
1
1
1
0
1
303
875
1023
1023
1023
1023
1023
1023
1023
1023
1023
1023
1023
1023
1023
1023
1023
1023
1023
1023
1023
1023
1023
1023
1023
1023
1023
1023
1023
1023
1023
1023
1023
1023
1023
1023
1023
1023
671
402
243
252
842
1023
1023
1023
1023
948
560
334
202
222
822
1023
1023
1023
1023
937
554
331
199
216
817
1023
1023
1023
1023
925
547
326
197
211
812
1023
1023
1023
1023
916
542
323
195
206
807
1023
1023
1023
1023
904
535
319
192
203
805
1023
1023
1023
1023
897
531
317
191
198
801
1023
1023
1023
1023
887
525
313
189
193
796
1023
1023
1023
1023
878
520
310
187
189
791
1023
1023
1023
1023
877
519
310
187
186
788
1023
1023
1023
1023
865
512
306
184
182
785
1023
1023
1023
1023
861
510
304
184
178
780
1023
1023
1023
1023
850
503
301
181
173
775
1023
1023
1023
1023
840
497
297
179
172
774
1023
1023
1023
1023
838
496
296
179
167
769
1023
1023
1023
1023
830
492
294
177
165
765
1023
1023
1023
1023
820
486
290
175
162
763
1023
1023
1023
1023
814
483
288
174
158
758
1023
1023
1023
1023
811
481
287
173
158
758
1023
1023
1023
1023
805
477
285
172
155
754
1023
1023
1023
1023
800
475
284
171
151
749
1023
1023
1023
1023
791
469
280
169
149
747
1023
1023
1023
1023
787
467
279
169
146
742
1023
1023
1023
1023
779
462
276
167
142
737
1023
1023
1023
1023
774
459
275
166
140
734
1023
1023
1023
1023
767
455
272
164
136
728
1023
1023
1023
1023
761
451
270
163
130
719
1023
1023
1023
1023
756
449
268
162
128
715
1023
1023
1023
1023
751
446
267
161
126
712
1023
1023
1023
1023
751
445
266
161
126
713
1023
1023
1023
1023
745
442
264
160
125
712
1023
1023
1023
1023
740
439
263
159
123
709
1023
1023
1023
1023
736
437
261
158
122
705
1023
1023
1023
1023
736
437
261
158
121
705
1023
1023
1023
1023
732
434
260
157
120
703
1023
1023
1023
1023
728
432
258
156
118
700
1023
1023
1023
1023
723
429
257
155
116
696
1023
1023
1023
1023
720
427
256
155
116
695
1023
1023
1023
1023
717
426
254
154
114
691
1023
1023
1023
1023
715
424
254
154
113
688
1023
1023
1023
1023
713
423
253
153
112
686
1023
1023
1023
1023
708
420
251
152
110
683
1023
1023
1023
1023
704
417
250
151
108
680
1023
1023
1023
1023
704
418
250
152
108
678
1023
1023
1023
1023
697
414
247
150
106
674
1023
1023
1023
1023
696
413
247
150
104
670
1023
1023
1023
1023
690
410
245
149
103
668
1023
1023
1023
1023
687
408
244
148
101
662
1023
1023
1023
1023
688
409
244
148
101
662
1023
1023
1023
1023
683
405
242
147
100
659
1023
1023
1023
1023
681
404
242
147
99
655
1023
1023
1023
1023
676
401
240
146
97
653
1023
1023
1023
1023
680
404
241
146
97
650
1023
1023
1023
1023
674
400
239
145
96
647
1023
1023
1023
1023
673
400
239
145
96
647
1023
1023
1023
1023
672
399
239
145
95
644
1023
1023
1023
1023
673
400
239
145
95
642
1023
1023
1023
1023
667
396
237
144
94
640
1023
1023
1023
1023
665
395
236
143
93
636
1023
1023
1023
1023
662
393
235
143
92
633
1023
1023
1023
1023
663
394
236
143
92
632
1023
1023
1023
1023
672
399
239
145
92
626
1023
1023
1023
1023
669
397
238
144
91
624
1023
1023
1023
1023
666
395
237
144
90
621
1023
1023
1023
1023
667
396
237
144
90
618
1023
1023
1023
1023
661
392
235
142
89
616
1023
1023
1023
1023
661
393
235
143
89
614
1023
1023
1023
1023
660
392
234
142
88
611
1023
1023
1023
1023
659
391
234
142
88
609
1023
1023
1023
1023
655
389
233
141
87
605
1023
1023
1023
1023
655
389
233
141
87
602
1023
1023
1023
1023
653
387
232
141
87
600
1023
1023
1023
1023
653
388
232
141
87
597
1023
1023
1023
1023
651
386
231
140
86
593
1023
1023
1023
1023
649
385
231
140
86
593
1023
1023
1023
1023
650
386
231
140
86
590
1023
1023
1023
1023
649
385
231
140
86
590
1023
1023
1023
1023
648
384
230
140
85
585
1023
1023
1023
1023
647
384
230
140
85
585
1023
1023
1023
1023
646
383
229
139
85
582
1023
1023
1023
1023
645
383
229
139
85
580
1023
1023
1023
1023
643
382
229
139
85
577
1023
1023
1023
1023
644
382
229
139
85
576
1023
1023
1023
1023
639
379
227
138
84
572
1023
1023
1023
1023
640
380
227
138
84
572
1023
1023
1023
1023
639
379
227
138
84
572
1023
1023
1023
1023
638
379
227
138
84
569
1023
1023
1023
1023
637
378
226
138
84
567
1023
1023
1023
1023
638
379
227
138
84
563
1023
1023
1023
1023
634
376
225
137
84
562
1023
1023
1023
1023
635
377
225
137
84
560
1023
1023
1023
1023
634
376
225
137
83
556
1023
1023
1023
1023
633
376
225
136
83
554
1023
1023
1023
1023
633
376
225
137
83
552
1023
1023
1023
1023
633
375
225
137
83
550
1023
1023
1023
1023
631
374
224
136
83
548
1023
1023
1023
1023
631
374
224
136
83
547
1022
1023
1023
1023
629
374
224
136
83
545
1021
1023
1023
1023
630
374
224
136
83
543
1020
1023
1023
1023
630
374
224
136
83
541
1019
1023
1023
1023
632
375
225
137
83
539
1017
1023
1023
1023
630
374
224
136
83
538
1017
1023
1023
1023
630
374
224
136
83
537
1016
1023
1023
1023
629
373
224
136
83
534
1015
1023
1023
1023
629
373
223
136
83
533
1014
1023
1023
1023
629
373
223
136
83
531
1013
1023
1023
1023
627
372
223
135
83
530
1013
1023
1023
1023
627
372
223
135
83
530
1012
1023
1023
1023
626
371
222
135
82
527
1010
1023
1023
1023
625
371
222
135
82
526
1010
1023
1023
1023
625
371
222
135
82
523
1009
1023
1023
1023
624
370
222
135
82
520
1007
1023
1023
1023
623
370
222
135
82
520
1006
1023
1023
1023
623
369
222
134
82
516
1004
1023
1023
1023
621
368
221
134
82
514
1003
1023
1023
1023
622
369
221
134
82
511
1002
1023
1023
1023
622
369
221
134
82
510
1001
1023
1023
1023
624
370
222
135
82
509
1001
1023
1023
1023
623
370
222
135
82
506
999
1023
1023
1023
623
369
221
134
82
504
998
1023
1023
1023
620
368
221
134
82
502
997
1023
1023
1023
623
369
222
134
82
501
996
1023
1023
1023
624
370
222
135
82
500
996
1023
1023
1023
625
371
222
135
82
497
994
1023
1023
1023
625
371
222
135
82
496
993
1023
1023
1023
626
371
222
135
82
491
991
1023
1023
1023
634
376
225
137
83
491
990
1023
1023
1023
635
376
225
137
83
488
989
1023
1023
1023
636
377
226
137
84
487
988
1023
1023
1023
635
377
225
137
84
486
987
1023
1023
1023
633
376
225
136
83
484
987
1023
1023
1023
633
375
225
136
83
483
986
1023
1023
1023
633
376
225
136
83
480
984
1023
1023
1023
633
375
225
136
83
478
983
1023
1023
1023
631
374
224
136
83
475
981
1023
1023
1023
634
376
225
137
83
475
981
1023
1023
1023
633
375
225
136
83
472
979
1023
1023
1023
633
376
225
136
83
470
978
1023
1023
1023
635
376
225
137
83
469
978
1023
1023
1023
636
377
226
137
83
469
978
1023
1023
1023
633
376
225
136
83
466
976
1023
1023
1023
636
377
226
137
84
465
975
1023
1023
1023
636
377
226
137
84
464
975
1023
1023
1023
636
377
226
137
83
463
974
1023
1023
1023
636
377
226
137
84
461
973
1023
1023
1023
638
378
226
137
84
459
972
1023
1023
1023
636
377
226
137
84
457
971
1023
1023
1023
634
376
225
137
83
457
971
1023
1023
1023
637
378
226
137
84
454
969
1023
1023
1023
637
378
226
137
84
453
969
1023
1023
1023
638
379
227
138
84
451
967
1023
1023
1023
638
378
226
137
84
450
967
1023
1023
1023
636
377
226
137
83
448
965
1023
1023
1023
636
377
226
137
84
448
965
1023
1023
1023
638
379
227
137
84
445
964
1023
1023
1023
638
378
226
137
84
442
962
1023
1023
1023
638
378
226
137
84
440
961
1023
1023
1023
639
379
227
138
84
438
960
1023
1023
1023
636
377
226
137
83
436
958
1023
1023
1023
638
379
227
137
84
432
956
1023
1023
1023
638
378
226
137
84
432
956
1023
1023
1023
641
380
227
138
84
433
957
1023
1023
1023
641
380
227
138
84
428
954
1023
1023
1023
641
380
227
138
84
428
954
1023
1023
1023
640
380
227
138
84
426
953
1023
1023
1023
644
382
228
139
84
426
953
1023
1023
1023
643
381
228
139
84
423
951
1023
1023
1023
644
382
229
139
84
422
950
1023
1023
1023
643
382
228
138
84
421
950
1023
1023
1023
644
382
229
139
85
419
949
1023
1023
1023
645
382
229
139
84
417
948
1023
1023
1023
645
383
229
139
85
416
947
1023
1023
1023
645
383
229
139
85
416
947
1023
1023
1023
644
382
229
139
84
415
946
1023
1023
1023
646
383
229
139
85
411
944
1023
1023
1023
646
383
229
139
85
410
944
1023
1023
1023
647
384
229
139
85
407
942
1023
1023
1023
645
383
229
139
84
405
941
1023
1023
1023
646
383
229
139
85
403
940
1023
1023
1023
643
382
228
139
84
401
939
1023
1023
1023
646
383
229
139
85
400
938
1023
1023
1023
647
384
230
139
85
396
936
1023
1023
1023
648
384
230
139
85
395
935
1023
1023
1023
646
383
229
139
85
393
934
1023
1023
1023
649
385
230
140
85
391
933
1023
1023
1023
651
386
231
140
85
390
932
1023
1023
1023
653
387
231
140
85
387
930
1023
1023
1023
654
388
232
141
86
385
929
1023
1023
1023
651
386
231
140
85
385
929
1023
1023
1023
654
388
232
141
86
384
928
1023
1023
1023
662
393
235
142
87
380
927
1023
1023
1023
664
394
236
143
87
376
924
1023
1023
1023
664
393
235
143
87
374
923
1023
1023
1023
663
393
235
143
87
372
922
1023
1023
1023
665
394
236
143
87
370
921
1023
1023
1023
663
393
235
142
87
369
920
1023
1023
1023
667
395
236
143
87
367
919
1023
1023
1023
669
397
237
144
88
365
918
1023
1023
1023
667
395
236
143
87
364
918
1023
1023
1023
668
396
237
143
87
361
916
1023
1023
1023
667
395
236
143
87
359
915
1023
1023
1023
668
396
237
144
87
353
911
1023
1023
1023
665
394
236
143
87
354
911
1023
1023
1023
669
396
237
144
87
353
911
1023
1023
1023
669
396
237
144
87
351
910
1023
1023
1023
668
396
237
144
87
349
909
1023
1023
1023
673
399
238
144
88
347
908
1023
1023
1023
672
398
238
144
88
345
907
1023
1023
1023
672
399
238
144
88
344
906
1023
1023
1023
676
400
239
145
88
340
903
1023
1023
1023
676
400
239
145
88
340
903
1023
1023
1023
677
401
240
145
88
338
902
1023
1023
1023
679
402
240
146
89
337
902
1023
1023
1023
675
400
239
145
88
334
900
1023
1023
1023
681
403
241
146
89
332
899
1023
1023
1023
681
404
241
146
89
329
897
1023
1023
1023
680
403
240
146
89
327
896
1023
1023
1023
683
405
242
146
89
326
895
1023
1023
1023
681
404
241
146
89
324
894
1023
1023
1023
683
405
242
146
89
322
893
1023
1023
1023
684
405
242
147
89
321
892
1023
1023
1023
685
406
242
147
89
317
890
1023
1023
1023
684
405
242
147
89
315
889
1023
1023
1023
684
405
242
147
89
311
887
1023
1023
1023
684
405
242
146
89
308
885
1023
1023
1023
686
406
243
147
89
307
884
1023
1023
1023
685
406
242
147
89
304
883
1023
1023
1023
690
409
244
148
90
302
882
1023
1023
1023
690
408
244
148
90
299
880
1023
1023
1023
691
409
244
148
90
298
879
1023
1023
1023
691
410
244
148
90
296
878
1023
1023
1023
693
410
245
148
90
295
878
1023
1023
1023
693
411
245
149
90
293
876
1023
1023
1023
694
411
245
149
91
291
875
1023
1023
1023
696
412
246
149
91
288
874
1023
1023
1023
695
412
246
149
91
286
872
1023
1023
1023
697
413
246
149
91
285
871
1023
1023
1023
699
414
247
150
91
281
869
1023
1023
1023
698
414
247
149
91
280
869
1023
1023
1023
698
413
247
149
91
278
867
1023
1023
1023
700
415
248
150
91
277
866
1023
1023
1023
700
414
247
150
91
273
864
1023
1023
1023
699
414
247
150
91
273
864
1023
1023
1023
702
416
248
150
91
269
861
1023
1023
1023
699
414
247
150
91
267
860
1023
1023
1023
701
415
248
150
91
265
859
1023
1023
1023
702
416
248
150
91
263
858
1023
1023
1023
705
417
249
151
92
261
856
1023
1023
1023
704
417
249
151
92
259
855
1023
1023
1023
705
417
249
151
92
257
854
1023
1023
1023
707
418
250
151
92
257
854
1023
1023
1023
708
419
250
151
92
253
851
1023
1023
1023
710
420
251
152
92
251
850
1023
1023
1023
710
420
251
152
92
250
849
1023
1023
1023
712
422
252
152
93
245
846
1023
1023
1023
722
427
255
154
94
243
844
1023
1023
1023
725
429
256
155
94
243
844
1023
1023
1023
727
430
257
155
95
241
843
1023
1023
1023
727
430
257
155
94
239
842
1023
1023
1023
730
432
258
156
95
238
841
1023
1023
1023
729
431
258
156
95
233
837
1023
1023
1023
730
432
258
156
95
232
837
1023
1023
1023
733
434
259
157
95
230
835
1023
1023
1023
733
434
259
156
95
229
834
1023
1023
1023
733
434
259
156
95
227
833
1023
1023
1023
734
434
259
157
95
223
830
1023
1023
1023
734
434
259
157
95
221
829
1023
1023
1023
734
435
259
157
95
220
828
1023
1023
1023
734
435
260
157
95
217
826
1023
1023
1023
736
436
260
157
96
214
823
1023
1023
1023
737
436
260
157
96
210
820
1023
1023
1023
738
437
261
157
96
210
820
1023
1023
1023
740
438
262
158
96
209
820
1023
1023
1023
741
438
262
158
96
208
818
1023
1023
1023
739
437
261
158
96
205
816
1023
1023
1023
746
441
263
159
97
203
815
1023
1023
1023
745
441
263
159
97
200
812
1023
1023
1023
749
443
264
159
97
201
813
1023
1023
1023
747
442
264
159
97
199
811
1023
1023
1023
749
443
265
160
97
196
809
1023
1023
1023
749
443
265
160
97
195
808
1023
1023
1023
752
445
266
160
97
194
807
1023
1023
1023
751
444
265
160
97
190
804
1023
1023
1023
749
443
265
160
97
189
803
1023
1023
1023
755
447
267
161
98
187
801
1023
1023
1023
755
447
267
161
98
186
800
1023
1023
1023
755
447
267
161
98
182
797
1023
1023
1023
757
448
267
161
98
182
797
1023
1023
1023
757
448
267
161
98
180
795
1023
1023
1023
760
450
269
162
98
178
793
1023
1023
1023
760
450
268
162
98
176
791
1023
1023
1023
756
447
267
161
98
174
789
1023
1023
1023
763
451
269
162
99
174
789
1023
1023
1023
763
451
269
162
99
171
787
1023
1023
1023
764
452
270
163
99
169
785
1023
1023
1023
767
454
271
163
99
168
784
1023
1023
1023
769
455
271
164
99
167
783
1023
1023
1023
771
456
272
164
100
166
782
1023
1023
1023
773
457
273
164
100
166
781
1023
1023
1023
770
455
272
164
100
162
778
1023
1023
1023
772
456
272
164
100
161
777
1023
1023
1023
776
459
274
165
100
160
776
1023
1023
1023
776
459
274
165
100
158
773
1023
1023
1023
778
460
274
165
100
158
774
1023
1023
1023
776
459
274
165
100
157
772
1023
1023
1023
781
462
275
166
101
154
770
1023
1023
1023
781
462
275
166
101
152
768
1023
1023
1023
784
463
276
167
101
153
768
1023
1023
1023
784
463
276
166
101
151
766
1023
1023
1023
787
465
277
167
101
150
764
1023
1023
1023
787
465
277
167
102
145
759
1023
1023
1023
778
460
274
165
100
144
758
1023
1023
1023
780
461
275
166
101
140
754
1023
1023
1023
779
460
275
165
101
142
756
1023
1023
1023
786
464
277
167
102
142
756
1023
1023
1023
787
465
277
167
102
138
752
1023
1023
1023
784
463
276
167
101
134
746
1023
1023
1023
786
464
277
167
101
132
744
1023
1023
1023
787
465
277
167
101
136
749
1023
1023
1023
810
478
285
172
104
137
749
1023
1023
1023
813
480
286
172
105
133
745
1023
1023
1023
815
481
287
173
105
131
742
1023
1023
1023
813
480
286
172
105
64
40
25
16
11
7
5
4
3
2
2
1
1
1
1
1
1
1
1
1
1
1
1
1
1
1
1
1
1
1
1
1
1
1
1
1
1
1
1
1
1
1
1
1
1
1
1
1
1
1
1
1
1
1
1
1
1
1
1
1
1
1
368
398
229
135
80
48
29
18
11
85
721
1023
772
449
265
159
96
59
36
203
819
1023
1023
654
385
229
139
84
52
294
875
1023
1023
779
459
273
164
100
61
347
906
1023
1023
854
502
298
179
109
67
360
914
1023
1023
866
509
302
182
110
68
347
907
1023
1023
840
494
294
177
107
66
306
883
1023
1023
771
454
270
163
99
61
239
843
1023
1023
671
395
235
142
86
53
149
777
1023
884
514
303
181
110
67
41
50
655
873
525
306
182
110
66
41
25
16
10
7
5
4
3
2
2
1
1
1
1
1
1
1
1
1
1
1
1
1
1
1
1
1
1
1
1
1
1
1
1
19
30
17
10
6
4
2
2
97
588
1023
1023
1023
779
460
274
165
419
951
1023
1023
1023
1023
1023
776
462
277
557
1023
1023
1023
1023
1023
1023
1023
1023
1023
1023
1023
1023
1023
1023
1023
1023
675
404
243
250
836
1023
1023
1023
1001
588
350
210
128
157
768
1023
1023
1023
990
581
346
208
126
151
763
1023
1023
1023
986
579
344
207
126
155
767
1023
1023
1023
990
581
346
208
126
153
765
1023
1023
1023
990
582
346
208
126
149
760
1023
1023
1023
986
579
344
207
126
142
752
1023
1023
1023
983
577
343
206
125
141
751
1023
1023
1023
981
576
343
206
125
141
751
1023
1023
1023
979
575
342
205
125
138
747
1023
1023
1023
981
576
343
206
125
135
744
1023
1023
1023
981
576
343
206
125
134
742
1023
1023
1023
982
577
343
206
125
132
739
1023
1023
1023
980
575
342
206
125
130
737
1023
1023
1023
982
577
343
206
125
127
732
1023
1023
1023
981
576
343
206
125
126
730
1023
1023
1023
981
576
342
206
125
123
727
1023
1023
1023
981
576
343
206
125
121
724
1023
1023
1023
978
574
341
205
125
118
719
1023
1023
1023
979
575
341
205
125
116
716
1023
1023
1023
978
575
341
205
125
116
715
1023
1023
1023
980
575
342
205
125
113
711
1023
1023
1023
977
574
341
205
124
112
708
1023
1023
1023
977
574
341
205
124
110
706
1023
1023
1023
978
574
341
205
125
109
702
1023
1023
1023
977
574
341
205
124
107
700
1023
1023
1023
976
573
341
205
124
105
696
1023
1023
1023
976
573
341
205
124
103
692
1023
1023
1023
980
575
342
205
125
103
690
1023
1023
1023
976
573
341
205
124
101
686
1023
1023
1023
975
573
340
204
124
99
684
1023
1023
1023
978
574
341
205
124
98
679
1023
1023
1023
976
573
341
205
124
96
677
1023
1023
1023
978
574
341
205
124
95
674
1023
1023
1023
982
576
342
206
125
94
671
1023
1023
1023
982
576
342
206
125
93
667
1023
1023
1023
984
577
343
206
125
92
663
1023
1023
1023
1002
588
349
210
127
92
660
1023
1023
1023
1004
589
350
210
127
91
658
1023
1023
1023
1003
588
349
210
127
90
653
1023
1023
1023
1004
589
350
210
127
89
652
1023
1023
1023
1006
590
350
210
128
88
648
1023
1023
1023
1007
590
351
210
128
88
645
1023
1023
1023
1006
590
350
210
128
87
643
1023
1023
1023
1002
588
349
209
127
86
639
1023
1023
1023
1009
591
351
211
128
85
636
1023
1023
1023
1012
593
352
211
128
85
633
1023
1023
1023
1005
589
350
210
127
84
629
1023
1023
1023
1003
588
349
210
127
83
626
1023
1023
1023
1009
591
351
210
128
83
622
1023
1023
1023
1010
592
351
211
128
82
621
1023
1023
1023
1010
592
351
211
128
82
616
1023
1023
1023
1008
591
351
210
128
81
614
1023
1023
1023
1013
593
352
211
128
81
608
1023
1023
1023
1013
593
352
211
128
80
606
1023
1023
1023
1012
593
352
211
128
80
602
1023
1023
1023
1017
595
354
212
129
80
599
1023
1023
1023
1016
595
353
212
129
80
595
1023
1023
1023
1020
597
355
213
129
80
592
1023
1023
1023
1023
601
357
214
130
80
589
1023
1023
1023
1020
597
355
213
129
79
586
1023
1023
1023
1023
602
357
214
130
80
583
1023
1023
1023
1023
602
358
214
130
79
580
1023
1023
1023
1023
604
359
215
130
80
578
1023
1023
1023
1023
603
358
215
130
79
574
1023
1023
1023
1023
604
359
215
131
80
570
1023
1023
1023
1023
606
360
216
131
80
564
1023
1023
1023
1023
606
360
216
131
80
558
1023
1023
1023
1023
608
361
216
131
80
49
31
20
13
9
6
4
3
2
2
2
1
1
1
1
1
1
1
1
1
1
1
1
1
1
1
1
1
1
1
1
1
1
1
1
1
1
1
1
1
1
1
0
1
1
1
1
1
1
1
1
1
1
1
1
1
0
1
1
1
1
1
1
1
1
1
1
1
1
0
0
0
0
1
1
0
1
0
1
1
0
1
0
1
0
1
0
1
1
0
1
1
1
1
1
1
1
1
1
1
1
1
1
1
1
1
1
1
0
1
0
1
1
1
1
1
1
13
74
176
281
377
463
532
588
644
723
815
907
977
1023
1023
1023
1023
1023
1023
1023
1023
1023
1023
1023
1023
1023
1023
1023
1023
1023
1023
1023
1023
1023
1023
1023
1023
1023
1023
1023
1023
1023
1023
1023
1023
1023
1023
1023
1023
1023
1023
1023
1023
1023
1023
1023
1023
1023
1023
1023
1023
1023
1023
1023
1023
1023
1023
1023
1023
1023
1023
1023
1023
1023
1023
1023
1023
1023
1023
1023
1023
1023
1023
1023
1023
1023
1023
1023
1023
1023
1023
1023
1023
1023
1023
1023
1023
1023
1023
1023
1023
1023
1023
1023
1023
1023
1023
1023
1023
1023
1023
1023
1023
1023
1023
1023
1023
1023
1023
1023
1023
1023
1023
1023
1023
1023
1023
1023
1023
1023
1023
1023
1023
1023
1023
1023
1023
1023
1023
1023
1023
1023
1023
1023
1023
1023
1023
1023
1023
1023
1023
1023
1023
1023
1023
1023
1023
1023
1023
1023
1023
1023
1023
1023
1023
1023
1023
1023
1023
1023
1023
1023
1023
1023
1023
1023
1023
1023
1023
1023
1023
1023
1023
1023
1023
1023
1023
1023
1023
1023
1023
1023
1023
1023
1023
1023
1023
1023
1023
1023
1023
1023
1023
1023
1023
1023
1023
1023
1023
1023
1023
1023
1023
1023
1023
1023
1023
1023
1023
1023
1023
1023
1023
1023
1023
1023
1023
1023
1023
1023
1023
1023
1023
1023
1023
1023
1023
1023
1023
1023
1023
1023
1023
1023
1023
1023
1023
1023
1023
1023
1023
1023
1023
1023
1023
1023
1023
1023
1023
1023
1023
1023
1023
1023
1023
1023
1023
1023
1023
1023
1023
1023
1023
1023
1023
1023
1023
1023
1023
1023
1023
1023
1023
1023
1023
1023
1023
1023
1023
1023
1023
1023
1023
1023
1023
1023
1023
1023
1023
1023
1023
1023
1023
1023
1023
1023
1023
1023
1023
1023
1023
1023
1023
1023
1023
1023
1023
1023
1023
1023
1023
1023
1023
1023
1023
1023
1023
1023
1023
1023
1023
1023
1023
1023
1023
1023
1023
1023
1023
1023
1023
1023
1023
1023
1023
1023
1023
1023
1023
1023
1023
1023
1023
1023
1023
1023
1023
1023
1023
1023
1023
1023
1019
968
911
882
867
865
878
891
905
919
914
903
898
899
903
911
917
914
915
917
899
864
833
809
799
811
836
859
851
829
802
779
773
779
783
776
768
780
784
792
803
788
755
742
746
742
737
741
755
761
751
739
726
715
711
724
742
757
764
757
756
760
740
712
700
710
727
726
728
729
711
685
683
692
695
695
706
720
734
747
742
730
725
736
746
745
738
721
714
705
704
713
727
749
783
819
831
823
788
736
699
688
711
732
752
759
749
726
699
661
631
617
618
620
626
630
662
703
720
713
695
677
676
674
663
654
652
655
652
640
636
645
647
631
609
602
619
612
583
565
555
534
514
511
520
545
567
523
444
380
353
344
338
328
329
346
358
367
377
386
399
388
359
338
314
298
305
332
349
339
325
323
338
340
334
345
358
349
338
311
279
261
269
274
251
244
272
309
336
336
317
288
276
280
284
279
284
303
340
366
358
336
321
325
328
313
289
282
276
271
283
303
313
317
312
314
343
365
365
354
358
354
343
350
358
359
363
355
336
305
275
274
286
322
360
358
324
297
300
309
315
334
354
358
329
317
350
377
390
399
391
364
333
298
279
270
282
298
313
342
374
364
323
292
273
277
287
293
305
317
354
376
381
380
372
365
336
296
280
282
293
288
273
282
292
306
332
346
327
307
297
288
281
288
299
306
308
279
252
265
300
332
353
357
339
317
294
280
293
336
382
397
373
337
307
292
287
296
300
302
307
323
346
348
344
338
334
342
341
327
322
297
256
236
248
271
267
246
237
256
278
293
313
355
388
387
360
320
280
275
283
283
269
262
273
301
310
315
321
324
330
321
315
320
315
309
312
314
303
298
303
292
270
260
261
270
276
280
277
264
250
253
269
297
321
310
292
292
310
321
312
298
278
244
220
210
221
241
269
304
322
297
267
254
237
224
232
240
241
244
255
270
261
245
262
268
250
248
264
282
301
309
314
315
287
242
214
211
227
229
219
200
189
201
227
246
249
254
263
264
259
257
252
236
206
176
161
179
216
233
231
228
216
199
181
168
167
158
164
176
177
174
184
209
239
254
243
222
221
215
199
185
183
201
230
248
243
234
256
287
305
316
313
289
242
209
198
200
220
236
242
245
244
225
211
202
186
175
172
169
168
167
166
178
186
193
201
201
207
198
166
162
168
153
130
123
125
139
176
216
257
319
415
537
642
685
670
623
548
470
412
385
370
340
280
192
115
75
60
53
52
68
80
97
124
139
145
145
138
146
145
122
94
92
108
116
119
117
85
53
47
66
91
120
145
155
135
101
74
75
92
90
80
85
115
125
119
102
91
93
100
112
127
138
144
139
139
137
124
100
83
70
75
82
88
100
113
133
162
197
215
202
168
146
127
109
113
124
110
110
126
135
148
163
172
182
180
161
138
134
147
158
164
167
172
187
205
219
237
258
260
250
226
184
148
148
173
182
182
202
237
266
275
271
284
303
297
261
241
236
244
254
242
239
244
243
266
304
343
360
357
335
306
275
233
211
199
198
207
214
218
229
247
255
246
232
219
199
173
167
191
211
205
194
177
141
93
57
57
80
94
86
72
80
87
96
130
135
100
63
37
26
28
30
31
39
42
50
59
65
77
89
81
60
53
66
87
110
118
119
123
126
124
106
83
71
76
91
100
103
102
113
140
156
150
120
98
91
86
75
62
59
65
55
45
69
112
128
122
113
105
100
118
135
131
112
100
86
88
117
154
195
235
250
226
183
156
143
142
153
149
139
127
117
110
119
124
121
127
137
141
138
140
141
125
111
112
121
126
135
147
160
174
195
219
245
245
191
117
82
95
131
142
137
139
145
153
176
199
221
233
231
226
207
169
143
133
132
138
149
164
185
207
233
249
250
245
232
205
179
170
172
177
184
192
202
183
159
164
190
224
234
217
204
194
187
197
233
276
305
298
270
244
219
201
220
243
234
212
200
207
231
244
229
216
213
218
228
231
230
225
219
220
222
217
218
226
230
202
167
152
164
191
207
213
194
182
200
242
281
300
282
242
204
174
157
160
178
191
194
212
242
240
211
187
176
180
207
235
252
263
270
278
263
229
198
173
161
182
192
202
207
219
232
239
242
238
221
202
197
230
261
263
248
238
239
247
277
291
285
279
298
322
300
245
219
234
258
256
251
263
274
278
275
262
240
223
238
275
293
301
317
312
270
239
250
246
232
233
220
226
258
276
283
285
281
289
307
318
315
307
284
249
221
219
218
228
248
263
268
268
276
286
294
295
276
266
262
254
245
243
251
264
271
262
260
268
280
293
302
303
281
254
242
234
233
231
235
238
239
242
235
233
229
223
242
283
308
297
259
237
229
220
206
192
194
201
216
238
275
351
426
479
540
595
625
610
584
550
508
456
380
309
270
247
233
213
194
196
209
205
190
188
189
186
191
210
233
235
209
185
171
166
149
123
107
131
186
260
311
311
265
214
183
167
161
157
153
171
187
196
205
224
247
264
279
288
291
304
317
322
310
287
274
275
278
280
285
295
315
323
314
300
288
279
273
277
271
274
299
316
316
328
333
319
284
267
281
293
297
300
303
305
308
316
325
326
329
345
367
390
409
417
424
428
432
418
395
403
436
463
458
440
420
404
386
368
371
394
414
418
402
390
386
395
410
418
425
433
438
443
451
457
454
441
425
416
405
389
376
374
377
385
405
428
445
448
430
410
418
433
423
380
321
277
268
274
276
270
266
267
255
234
237
246
247
233
215
203
203
223
232
198
171
166
164
167
178
175
180
192
202
196
161
135
138
148
157
161
162
180
196
206
202
183
164
155
154
158
161
157
160
150
146
156
171
183
189
181
173
180
196
208
192
160
145
149
161
171
185
213
233
238
223
186
166
176
201
221
221
212
227
231
205
175
162
149
146
160
181
201
210
222
251
284
281
245
209
186
170
170
188
206
216
223
232
225
226
236
237
222
201
185
172
159
162
172
174
187
209
228
241
248
250
259
270
260
235
219
243
258
244
234
220
217
218
211
224
245
255
257
264
280
282
272
256
256
264
267
270
271
289
315
334
343
336
316
303
294
285
295
306
311
308
285
273
282
288
290
296
304
308
314
323
338
333
317
300
290
297
308
301
289
301
322
337
347
353
357
347
338
332
330
318
311
315
321
325
339
359
387
419
433
408
365
333
324
319
326
338
338
343
349
350
354
341
324
317
337
365
392
407
399
394
391
378
367
361
363
378
402
429
436
422
395
364
351
356
377
415
436
441
438
427
421
424
432
437
432
404
376
365
361
353
358
366
374
380
399
411
412
427
454
451
417
372
335
301
266
261
314
363
361
346
354
372
385
386
377
375
385
396
409
422
420
417
425
429
416
402
400
404
412
422
420
421
422
415
404
387
384
392
409
425
435
434
401
364
353
351
354
350
366
386
395
397
395
381
358
333
342
359
356
340
329
346
366
375
370
363
359
371
399
423
446
460
495
545
593
654
715
767
798
804
774
714
662
609
535
440
351
287
251
224
221
229
230
234
240
259
282
284
295
307
320
311
288
298
318
326
318
312
339
359
356
338
314
294
281
270
268
267
265
264
275
303
317
327
340
365
378
371
352
336
344
366
372
363
355
342
322
307
308
309
321
333
341
351
362
358
347
343
358
365
375
382
372
376
389
390
372
347
336
348
367
376
396
405
420
438
441
438
416
399
403
411
423
441
466
499
533
534
515
499
481
444
401
423
500
578
603
572
525
489
474
486
504
518
528
537
562
589
600
593
586
590
593
594
595
597
624
643
631
605
565
546
545
544
521
487
459
462
488
509
523
512
492
461
432
423
429
444
459
448
443
460
464
450
425
394
367
341
326
336
350
372
404
413
393
378
380
383
377
351
310
274
261
279
299
301
289
282
297
319
320
308
308
325
350
368
367
354
347
342
336
321
317
336
369
386
387
390
393
371
347
337
337
342
338
331
347
382
420
428
413
399
392
390
377
368
377
397
420
435
431
408
383
370
374
386
398
396
398
393
396
421
442
451
445
430
406
382
375
379
394
421
440
438
428
416
402
391
388
378
372
364
354
347
358
381
401
410
392
368
357
357
376
402
421
424
423
414
412
422
426
386
345
330
351
384
404
412
414
408
392
368
363
391
423
421
399
383
388
392
382
366
350
362
375
382
381
378
395
419
431
424
400
391
413
445
433
385
345
341
367
391
411
425
430
436
450
458
449
434
427
433
460
484
469
435
407
385
366
365
381
412
433
441
440
448
467
486
483
469
448
415
413
453
471
451
440
441
421
406
416
432
445
462
466
473
492
497
478
440
410
411
440
458
457
451
428
414
415
433
454
477
496
498
497
503
504
480
443
418
415
409
398
414
463
490
481
460
446
439
452
469
468
450
441
447
444
436
436
462
478
481
482
473
466
467
474
465
440
420
403
407
415
424
452
475
469
466
468
457
444
469
502
518
487
448
438
453
471
464
459
465
472
483
497
497
486
477
484
490
482
484
482
473
473
485
500
503
487
465
457
463
479
492
498
503
512
540
563
564
536
513
505
499
462
425
405
396
388
391
416
445
466
476
484
498
477
446
451
478
509
535
549
568
611
677
740
797
840
869
883
885
859
820
760
694
626
564
509
463
420
374
338
304
282
272
289
315
341
367
389
396
401
408
406
407
427
457
470
460
440
421
413
415
424
440
439
424
411
409
404
411
421
422
400
368
354
363
373
381
381
376
393
429
465
481
469
451
449
455
453
447
439
434
430
438
445
462
487
488
476
476
480
467
441
413
400
397
409
432
446
458
461
470
482
491
515
530
518
497
479
471
474
477
481
492
500
496
496
505
513
510
502
490
489
509
532
556
566
554
541
533
537
540
551
576
603
630
626
603
580
562
545
542
563
602
635
634
598
542
500
490
503
515
513
509
517
531
545
540
521
506
512
522
528
527
519
512
508
502
523
535
492
436
413
419
435
455
470
466
429
382
360
351
351
358
352
345
359
370
363
378
398
388
361
347
343
345
346
349
359
370
378
377
363
349
362
383
402
429
442
441
431
401
370
356
355
353
353
356
362
372
383
393
400
401
395
375
366
364
361
381
410
419
419
405
395
394
392
391
412
442
453
454
448
427
417
434
454
452
431
410
392
385
379
376
374
383
405
418
420
418
424
424
420
417
404
392
388
400
443
469
454
428
411
417
428
426
408
395
398
412
436
457
456
432
400
380
389
415
431
422
409
410
414
418
422
424
425
430
443
446
425
408
398
389
369
363
378
399
408
425
448
465
470
460
436
411
385
369
366
380
384
398
412
419
422
429
450
463
467
479
496
508
495
470
446
426
416
405
407
423
439
441
447
454
462
476
474
454
437
441
447
453
466
490
510
515
503
487
484
496
504
501
500
496
482
469
462
467
472
475
490
505
494
486
515
542
545
538
523
511
503
512
522
525
533
545
548
535
516
482
458
451
457
467
480
492
488
488
490
492
489
485
479
470
477
499
525
527
507
507
525
532
525
538
559
542
501
471
469
486
502
499
484
477
472
470
483
487
477
462
459
459
463
473
483
504
527
531
528
514
503
497
481
465
466
472
467
470
479
481
481
496
514
509
504
497
474
467
476
479
473
471
479
488
488
495
514
530
545
544
512
476
462
457
471
493
509
512
496
485
490
497
500
497
502
525
545
553
546
533
533
544
535
510
493
481
486
516
537
536
515
500
501
512
517
507
502
497
482
462
437
414
421
458
479
481
492
505
530
562
595
649
726
802
866
898
915
910
870
815
771
728
668
610
555
489
439
427
426
401
363
336
329
341
370
384
392
402
402
390
381
402
429
433
418
399
395
399
419
444
472
485
465
431
400
390
397
416
436
449
444
425
415
428
439
450
448
438
434
445
457
450
447
439
442
447
436
433
436
438
439
450
458
453
438
425
425
430
423
421
421
435
465
495
504
498
489
483
487
502
512
522
516
489
471
473
482
485
483
472
469
486
499
508
516
515
508
508
508
515
539
564
578
579
574
569
554
543
562
588
596
583
567
555
552
555
576
605
610
595
575
572
582
587
586
597
615
616
592
571
569
575
593
615
614
590
560
534
506
494
496
497
504
510
519
526
530
539
548
545
533
509
477
453
426
402
400
416
431
438
420
397
383
383
378
376
379
386
417
449
456
438
413
388
363
351
347
347
342
337
340
352
364
374
381
386
396
411
424
434
423
406
393
397
423
451
452
438
422
419
417
407
395
390
394
410
414
418
422
433
450
464
465
462
480
506
491
440
401
405
441
487
503
488
462
436
431
429
426
437
455
470
480
490
505
509
500
489
478
471
476
482
472
458
454
447
443
440
438
443
448
452
469
485
483
485
499
494
474
457
461
492
519
532
528
510
503
500
484
461
459
479
472
455
447
455
472
489
498
488
473
463
474
490
498
497
499
498
497
488
474
467
478
499
505
516
530
531
513
496
497
516
522
518
507
510
519
519
505
502
518
532
541
536
516
495
496
514
527
524
515
519
520
529
539
538
532
519
513
508
506
505
491
477
481
502
529
546
559
564
545
516
491
487
498
505
522
538
545
535
522
512
506
513
504
510
535
542
534
520
502
496
498
496
488
481
481
483
492
504
513
526
548
553
534
516
492
477
473
467
463
476
492
502
509
511
500
499
517
536
537
518
493
475
454
446
456
477
493
507
513
503
489
494
507
510
505
490
472
464
472
488
493
488
499
520
535
535
532
532
524
513
501
489
491
497
492
475
462
466
483
503
527
536
528
537
546
536
530
538
536
544
555
568
578
571
545
519
509
499
492
503
533
570
580
573
561
541
516
498
498
519
548
563
578
585
596
607
609
599
574
560
568
579
586
584
580
583
591
600
610
616
607
574
545
549
560
551
538
532
551
570
576
565
553
555
544
529
529
539
539
536
534
543
547
540
540
561
608
648
689
745
812
890
962
1008
1009
968
910
878
830
747
657
602
585
556
513
482
473
479
481
484
498
508
499
470
443
422
405
409
424
440
450
468
489
497
485
458
450
476
485
467
452
438
435
449
467
463
445
429
427
444
476
524
553
531
490
474
486
475
430
392
382
401
430
457
486
511
514
502
489
492
488
486
483
486
486
474
476
483
507
534
544
541
529
535
548
551
539
517
501
486
478
489
507
534
552
552
540
517
516
531
538
546
551
569
586
589
580
580
574
551
549
552
556
567
600
635
654
665
648
614
604
599
598
607
609
615
634
648
653
649
638
645
676
705
723
711
674
619
578
579
600
622
629
632
638
643
631
615
598
587
578
561
555
551
539
526
515
518
526
547
563
567
546
504
472
460
471
491
503
499
502
524
537
533
520
498
468
441
420
399
388
384
395
404
407
411
412
417
433
447
441
421
417
410
395
382
394
421
433
436
438
445
468
467
474
488
497
473
414
365
359
364
377
393
411
428
423
404
397
400
402
405
408
413
418
434
450
453
451
453
468
475
467
456
445
440
434
438
445
447
459
472
471
462
463
463
465
471
481
496
517
532
516
489
453
433
448
471
489
508
537
572
575
527
470
443
451
468
476
482
498
513
522
521
504
486
475
480
488
473
446
437
453
471
490
512
539
546
537
526
510
496
477
470
476
493
515
533
537
532
537
553
565
564
540
523
531
541
537
516
501
495
491
482
491
516
537
558
584
604
612
603
583
559
540
531
513
492
488
490
498
528
543
536
529
530
541
564
591
603
581
550
535
536
540
535
509
486
456
447
457
469
480
490
503
509
502
500
517
529
527
526
521
518
518
516
520
510
485
468
472
507
555
590
593
576
557
539
530
526
535
548
552
544
510
472
442
438
450
468
486
492
497
508
520
539
554
555
548
551
560
564
564
556
537
518
516
517
510
513
522
537
559
578
572
537
509
509
510
510
519
532
546
548
542
527
512
506
499
507
535
558
568
574
568
555
551
547
544
528
506
513
545
566
554
535
523
508
495
495
515
553
579
590
588
563
534
524
519
510
495
495
504
521
544
564
584
598
598
583
554
520
499
495
503
514
510
488
469
471
494
523
534
528
518
502
492
500
494
492
508
528
526
511
501
486
476
469
474
491
533
589
643
685
715
746
788
828
857
873
864
825
768
720
676
628
565
497
440
394
362
348
354
371
394
409
410
411
421
439
461
502
545
562
550
533
516
506
486
469
463
465
469
476
484
494
492
473
466
474
486
496
527
561
567
535
493
464
456
465
492
522
550
555
538
531
545
562
579
604
611
579
523
478
463
472
471
476
491
496
493
489
492
493
508
523
528
539
552
553
551
552
557
559
557
561
562
567
565
559
560
549
532
535
550
584
630
659
641
583
527
491
478
480
473
477
509
532
537
526
523
534
543
550
547
539
548
572
577
578
589
591
574
554
552
560
585
622
647
622
589
578
590
604
609
610
580
535
495
469
459
472
481
468
458
467
476
469
460
468
481
482
464
443
432
411
393
373
368
392
398
401
413
419
408
395
396
396
381
359
340
335
332
336
348
362
365
347
322
314
332
352
357
367
383
379
385
404
415
410
396
382
381
395
412
401
372
356
359
359
350
354
376
403
421
425
426
425
424
420
414
420
439
449
431
398
387
400
421
434
440
448
453
458
464
459
460
463
467
460
443
445
464
469
470
457
438
443
450
459
476
498
513
515
493
458
445
455
461
472
494
508
506
489
468
465
465
460
465
456
447
438
423
417
418
449
486
504
511
492
468
457
463
471
481
485
472
455
440
443
443
458
471
468
452
442
438
429
430
419
411
428
470
503
514
507
495
476
445
443
453
462
460
454
457
470
481
485
493
494
492
486
479
468
462
460
454
446
456
471
483
486
493
495
491
501
514
515
505
496
502
514
520
521
527
535
545
542
520
487
466
460
465
468
466
467
462
462
466
481
492
501
498
483
483
495
496
490
501
514
511
509
514
523
538
545
533
508
482
473
484
524
569
577
552
524
509
505
500
481
460
473
496
503
502
509
520
530
524
508
498
499
505
515
533
533
522
517
508
491
491
497
504
522
549
547
527
510
510
516
512
494
481
471
464
462
478
495
506
509
507
519
530
536
523
503
506
522
533
534
507
497
509
526
535
546
560
563
546
522
502
488
481
481
472
466
471
486
509
543
560
562
550
547
546
537
523
526
538
541
542
538
509
488
502
535
552
561
558
550
537
521
507
511
528
533
521
519
532
540
521
497
478
465
462
481
487
471
465
492
521
536
540
530
523
532
534
547
606
678
751
813
855
887
901
889
850
799
746
694
641
591
530
465
425
415
413
423
436
438
431
437
451
455
443
430
419
409
411
416
435
467
492
494
469
429
409
419
442
446
441
436
429
430
434
449
462
459
456
452
458
466
462
452
449
453
455
460
456
445
444
467
497
531
557
560
525
495
499
516
524
517
507
489
480
481
477
470
477
486
487
476
477
492
524
531
525
507
496
510
511
495
503
530
540
542
559
580
584
572
553
536
525
521
515
512
529
547
549
554
582
618
642
637
620
615
617
603
577
557
549
541
559
588
609
613
626
659
690
685
644
597
574
563
560
566
582
596
594
580
578
581
579
584
596
603
585
555
524
503
518
539
534
522
527
544
548
543
540
520
502
509
526
514
476
440
420
402
380
369
378
387
388
381
372
362
351
348
360
376
388
398
408
412
420
431
451
466
446
412
393
381
366
354
351
363
396
415
417
415
428
441
438
431
430
444
444
426
415
424
448
472
479
464
447
442
439
441
444
451
475
499
493
462
434
428
431
437
439
440
449
458
457
459
469
475
473
470
467
471
500
519
513
516
525
527
504
492
497
483
457
450
462
469
476
482
487
479
472
474
470
460
449
445
463
489
498
484
472
473
480
489
495
511
520
508
490
481
482
471
449
448
506
587
618
595
547
492
450
429
416
413
423
441
448
451
458
471
486
496
498
514
547
580
596
564
508
482
469
464
459
450
447
457
468
474
485
499
508
519
527
531
536
521
494
491
505
523
541
546
548
568
594
597
589
587
576
559
541
528
525
519
512
518
519
507
496
498
504
518
532
544
542
524
513
516
518
542
574
582
552
516
494
476
469
468
469
478
498
533
560
575
567
543
546
567
570
546
514
495
494
495
494
498
496
502
499
484
482
484
484
491
500
502
500
501
496
486
477
460
456
466
487
519
550
554
537
499
466
465
473
493
519
534
528
519
542
585
631
669
693
703
701
665
608
567
556
561
566
569
572
561
520
474
467
481
488
480
468
471
489
515
528
529
530
530
509
472
453
470
514
540
536
510
490
484
462
430
414
416
433
447
453
447
437
432
440
437
414
381
339
307
303
318
337
368
389
375
341
326
331
341
340
357
373
372
363
358
349
336
317
291
271
253
248
258
280
285
241
198
183
197
234
253
247
237
221
244
289
321
316
319
364
412
461
538
615
692
776
870
960
1018
1012
942
847
758
675
600
522
411
253
152
92
56
35
22
14
9
6
4
3
2
2
2
1
1
1
1
1
1
1
1
1
1
1
1
1
1
1
1
1
1
1
1
1
1
1
1
1
1
1
1
1
1
1
1
1
1
1
1
1
1
1
1
1
1
1
1
1
1
1
1
0
1
1
1
1
1
1
1
1
1
1
1
1
1
1
1
1
1
1
1
1
1
1
1
1
1
1
0
1
1
1
1
1
1
1
1
1
1
37
248
609
1019
1023
1023
1023
1023
1023
1023
1023
1023
1023
1023
1023
1023
1023
1023
1023
1023
1023
1023
1023
1023
1023
1023
1023
1023
1023
1023
1023
1023
1023
1023
1023
1023
1023
1023
1023
1023
1023
1023
1023
1023
1023
1023
1023
1023
1023
1023
1023
1023
1023
1023
1023
1023
1023
1023
1023
1023
1023
1023
1023
1023
1023
1023
1023
1023
1023
1023
1023
1023
1023
1023
1023
1023
1023
1023
1023
1023
1023
1023
1023
1023
1023
1023
1023
1023
1023
1023
1023
1023
1023
1023
1023
1023
1023
1023
1023
1023
1023
1023
1023
1023
1023
1023
1023
1023
1023
1023
1023
1023
1023
1023
1023
1023
1023
1023
1023
1023
1023
1023
1023
1023
1023
1023
1023
1023
1023
1023
1023
1023
1023
1023
1023
1023
1023
1023
1023
1023
1023
1023
1023
1023
1023
1023
1023
1023
1023
1023
1023
1023
1023
1023
1023
1023
1023
1023
1023
1023
1023
1023
1023
1023
1023
1023
1023
1023
1023
1023
1023
1023
1023
1023
1023
1023
1023
1023
1023
1023
1023
1023
1023
1023
1023
1023
1023
1023
1023
1023
1023
1023
1023
1023
1023
1023
1023
1023
1023
1023
1023
1023
1023
1023
1023
1023
1023
1023
1023
1023
1023
1023
1023
1023
983
956
969
996
1023
1023
1010
954
890
843
819
841
919
1013
1023
1023
1023
1023
1023
1023
1023
1023
1023
1023
1023
1023
1023
1023
1023
1023
1023
1023
1023
1023
1023
1023
1023
1023
1023
1023
1023
1023
1023
997
886
755
628
524
449
372
291
209
138
85
53
33
21
14
9
6
5
3
3
2
2
2
1
1
1
1
1
1
1
1
1
1
1
1
1
1
1
1
1
1
1
1
1
1
1
1
1
1
1
1
1
1
1
1
1
1
1
1
1
1
1
1
1
1
1
1
1
1
1
1
0
1
1
1
1
1
1
1
1
0
1
1
1
1
1
0
1
0
1
1
1
1
1
1
1
1
1
1
1
1
1
1
1
1
1
1
1
1
1
1
0
1
1
0
1
1
1
1
1
1
0
0
1
0
1
1
1
1
1
1
1
1
1
1
0
1
1
1
1
1
0
1
1
1
1
1
0
1
0
1
1
0
1
1
1
1
1
1
0
0
0
1
1
0
1
0
1
1
0
1
1
1
1
0
1
1
1
1
1
1
0
1
1
1
1
1
1
1
1
1
1
1
1
1
1
1
0
0
1
0
0
0
0
1
0
0
1
0
1
1
1
0
1
0
1
1
1
1
1
1
1
1
1
0
1
1
0
1
1
0
1
1
1
1
1
0
1
1
0
0
0
0
0
1
1
0
0
1
0
1
0
0
1
0
1
1
0
1
1
1
0
0
1
0
1
1
1
1
1
1
1
1
0
0
1
1
1
0
1
0
1
0
1
1
1
1
1
1
1
1
1
0
0
1
0
1
0
1
1
1
1
1
0
1
1
1
0
1
1
1
1
1
1
1
1
0
1
1
0
1
0
0
1
0
0
1
1
0
1
0
1
1
0
0
0
0
1
0
1
0
1
1
0
1
1
1
0
1
1
1
1
1
1
1
1
1
1
1
0
0
0
1
0
1
0
1
1
1
0
1
0
1
0
1
0
0
1
1
1
0
1
1
1
1
2
2
4
8
5
3
2
2
1
1
1
1
1
1
1
1
1
1
1
1
1
1
1
1
1
7
17
12
7
4
3
2
1
1
1
1
1
7
14
22
42
56
70
71
46
27
16
9
6
4
2
2
1
1
1
1
1
8
13
8
5
3
5
18
24
14
8
6
8
7
4
3
11
32
50
65
74
72
54
31
18
24
43
69
88
93
86
88
100
109
101
92
107
113
96
72
64
70
91
90
80
85
89
91
96
110
113
118
118
105
102
105
103
101
99
91
90
99
103
91
100
120
132
133
124
125
131
131
116
102
105
121
143
155
144
134
129
113
117
122
123
122
130
152
173
178
177
176
176
172
177
184
187
189
186
179
179
182
181
179
185
196
199
199
210
233
232
202
182
180
182
184
178
177
181
182
190
210
226
226
223
218
212
211
220
214
195
191
199
201
193
191
211
243
270
274
263
253
248
231
218
209
203
203
217
237
240
232
243
265
280
290
295
298
284
275
276
261
238
231
237
250
274
289
286
275
258
254
257
257
262
266
268
266
248
225
206
194
197
211
218
221
225
230
236
242
260
282
310
348
396
448
494
538
583
624
651
657
629
576
526
471
412
368
333
288
245
197
171
177
188
202
210
218
231
231
223
210
202
207
218
220
224
246
264
251
224
211
218
232
239
236
239
213
204
224
246
257
263
272
288
304
310
310
309
307
308
310
321
343
376
395
378
336
301
276
265
264
273
283
295
311
324
329
327
329
345
356
353
348
354
351
339
336
345
350
355
377
376
361
354
361
377
389
404
401
399
414
429
425
413
412
424
441
446
444
436
423
421
428
442
447
448
460
482
501
495
471
457
449
447
470
504
529
547
558
560
554
538
522
509
505
520
541
562
565
535
499
470
444
444
476
508
523
532
543
546
529
514
499
477
462
454
456
476
484
479
470
458
432
407
394
385
371
369
386
387
381
376
370
369
370
358
359
371
376
356
328
308
298
302
307
324
354
375
381
372
349
332
335
346
345
325
316
324
332
337
338
331
329
348
365
367
374
374
375
371
370
385
391
395
388
381
385
397
401
404
412
423
429
422
423
425
431
446
447
436
415
400
397
389
394
406
426
448
449
435
425
413
401
403
426
449
453
441
434
433
429
431
442
451
448
437
441
439
421
423
445
469
492
497
492
483
476
471
463
464
472
492
515
522
507
484
470
461
444
420
411
425
451
473
491
495
492
488
485
483
482
481
479
477
474
472
475
478
468
459
469
489
505
508
506
498
508
532
546
548
532
504
498
506
501
491
492
495
494
485
476
473
480
487
490
485
477
474
475
496
517
527
522
521
533
536
524
499
497
492
474
462
480
517
547
541
519
491
473
474
480
499
521
525
508
500
510
524
521
505
496
498
507
522
517
502
489
470
459
470
484
507
533
544
548
558
556
544
538
530
519
507
511
525
519
513
514
527
528
525
518
510
493
488
499
514
523
542
551
543
533
521
510
508
499
493
487
480
479
490
506
528
546
548
553
550
536
544
563
562
546
509
477
479
504
533
547
545
542
549
566
579
561
536
532
529
521
514
507
499
492
490
498
514
532
553
589
611
604
577
542
515
506
516
521
518
504
491
488
504
544
581
593
561
516
494
497
507
508
496
481
477
497
513
512
509
508
526
539
549
554
552
547
550
559
575
585
583
581
586
582
552
527
523
513
496
484
485
506
530
533
536
541
539
527
529
535
536
531
503
471
453
443
446
474
509
538
540
518
492
468
451
447
450
447
451
458
468
483
492
486
474
463
459
474
494
529
581
647
709
765
802
824
847
855
852
847
825
764
680
595
511
427
365
329
305
316
336
348
351
365
385
384
385
385
391
402
403
403
407
405
383
377
389
409
425
443
449
423
389
378
372
354
341
342
356
375
383
383
393
410
421
432
432
437
439
432
421
415
412
407
393
386
417
465
508
519
502
480
468
468
459
437
429
436
448
462
468
462
457
452
454
442
436
444
462
471
470
480
490
491
482
483
502
525
533
529
514
513
523
523
519
506
490
486
492
506
524
543
549
534
512
500
496
521
551
551
559
578
593
593
567
555
552
537
540
560
571
572
593
624
642
628
590
557
542
541
536
538
558
577
582
569
565
563
565
569
551
530
510
495
476
456
454
453
461
477
487
494
483
460
441
443
448
429
399
376
369
382
389
382
377
374
375
388
407
415
410
413
410
393
385
388
403
425
441
428
396
373
375
396
410
417
429
428
411
407
403
402
410
423
431
439
438
440
456
479
499
504
480
439
409
386
368
367
391
413
428
433
444
458
464
466
475
486
497
495
485
471
459
483
505
506
494
487
495
519
537
520
512
528
550
555
538
526
534
536
538
545
545
535
526
522
513
522
539
545
552
557
570
584
594
585
553
520
493
479
474
463
475
515
547
560
558
535
511
516
534
531
515
501
495
499
501
521
549
563
573
574
577
577
560
519
485
477
491
503
496
493
503
509
522
528
528
531
542
557
565
557
539
519
501
492
517
551
568
582
588
564
521
484
479
493
514
525
523
524
510
495
504
525
517
491
492
510
521
503
487
491
495
503
521
540
533
521
512
516
537
560
568
543
505
480
469
481
501
521
535
534
527
523
521
511
502
504
513
530
549
554
548
551
559
566
584
596
591
585
569
550
530
535
554
567
571
575
596
603
577
535
521
525
528
533
537
552
572
569
564
569
580
581
565
550
544
544
541
533
543
566
595
621
633
627
624
642
668
667
620
552
502
488
498
511
535
563
589
594
574
561
550
537
542
552
558
569
576
566
553
542
545
551
543
542
546
554
575
575
558
539
523
537
581
598
565
527
510
502
497
493
488
495
497
477
472
481
487
487
492
499
491
468
460
460
469
485
510
521
513
505
488
488
500
495
486
472
450
425
434
456
464
464
470
494
497
485
467
460
457
461
474
479
478
465
450
442
441
442
437
426
426
425
427
430
434
464
499
520
525
527
542
583
652
699
731
774
824
846
829
763
687
623
566
515
469
432
393
355
324
296
270
256
265
293
319
331
338
354
382
414
427
405
373
350
344
350
349
353
374
390
385
367
337
313
313
322
330
340
343
332
334
333
335
339
343
344
382
425
428
388
322
257
208
170
156
144
117
75
46
29
18
12
8
5
4
3
3
2
13
29
36
61
96
117
122
131
154
160
153
137
132
157
181
190
184
191
218
243
259
271
290
296
290
305
317
317
311
329
372
404
440
467
491
514
541
578
626
674
719
744
760
768
784
806
819
829
833
836
822
810
827
846
854
861
883
896
903
916
917
942
985
1023
1023
1023
1023
1023
1023
1023
1023
1023
1023
1023
1023
1023
1023
1023
1023
1023
1023
1023
1023
1023
1023
1023
1023
1023
1023
1023
1023
1023
1023
1023
1023
1023
1023
1023
1023
1023
1023
1023
1023
994
975
981
1013
1023
1023
1023
983
948
920
902
901
918
933
956
989
1014
1021
997
955
943
948
944
935
922
928
958
1011
1023
1023
972
924
916
937
958
966
975
983
969
941
933
941
968
1002
1015
1000
969
958
970
993
1004
1009
1022
1023
1023
1023
1023
1023
1023
1011
1000
987
977
986
1008
1017
1018
1019
1016
1001
993
984
970
963
975
1001
998
976
948
925
935
963
973
990
1023
1023
1023
986
934
896
876
865
861
861
861
863
854
851
849
841
846
854
856
855
854
843
807
781
780
773
755
742
747
761
763
740
728
723
714
699
679
661
647
637
633
628
624
623
627
633
645
645
631
605
583
574
570
569
562
555
556
566
586
595
597
590
570
541
508
476
474
499
536
559
586
601
590
548
497
479
471
471
476
487
495
502
520
545
550
535
505
479
468
478
489
491
490
481
472
480
493
494
479
468
463
453
464
486
499
499
477
447
430
431
446
470
493
500
487
466
418
375
365
382
406
423
432
437
440
441
437
439
445
456
470
461
436
421
418
425
452
464
445
411
390
387
393
404
402
401
400
397
402
414
417
417
428
449
475
485
464
429
408
419
446
466
471
481
475
448
436
465
511
541
525
476
442
436
431
435
460
496
515
503
483
479
480
483
464
419
394
400
413
415
417
420
420
411
406
401
405
430
468
486
495
487
468
452
431
413
398
392
384
384
412
453
473
469
457
434
417
416
421
415
409
416
422
424
425
418
402
391
387
399
410
419
426
431
433
437
447
444
425
386
348
330
321
318
324
316
296
276
278
302
335
343
333
330
343
355
358
349
334
321
321
328
368
429
487
548
579
608
661
711
733
717
676
622
581
530
460
407
374
331
288
252
216
195
185
189
206
228
249
266
284
297
302
296
289
286
284
277
260
255
258
267
281
294
285
271
254
238
242
263
292
311
323
322
298
280
277
283
287
292
302
312
321
333
320
286
278
288
299
316
332
334
334
327
320
323
335
355
382
402
394
384
395
406
413
412
394
374
360
336
321
317
320
325
331
344
354
361
367
362
359
363
376
384
395
421
457
465
437
401
396
409
423
427
413
399
401
417
440
464
488
515
538
537
518
500
488
485
492
499
520
544
555
555
549
537
510
489
486
497
508
517
494
478
492
513
527
517
485
459
452
452
440
438
445
445
439
442
451
468
469
443
412
394
380
368
367
379
388
389
392
395
386
367
350
330
322
321
319
322
329
334
345
344
316
284
279
281
288
308
331
338
335
324
304
289
290
292
290
295
304
313
332
346
353
353
338
336
337
332
318
311
300
288
284
293
305
303
310
325
343
354
354
351
349
343
334
323
316
324
339
349
351
357
364
347
328
343
391
451
489
463
411
358
318
308
323
345
353
360
359
346
359
384
398
391
371
342
318
331
357
372
365
359
360
362
370
394
421
428
412
396
378
374
370
365
359
369
379
372
381
404
420
432
424
407
399
415
440
449
440
427
413
400
378
360
341
343
360
392
424
437
435
426
409
394
387
388
403
421
426
423
426
438
433
417
402
393
392
395
398
416
424
409
408
403
398
420
452
457
428
393
391
404
410
391
335
284
260
264
288
312
331
338
340
343
357
379
405
413
396
368
347
347
356
368
388
407
424
426
414
400
392
401
414
426
426
423
429
449
461
456
446
423
399
398
418
439
454
455
441
434
435
449
470
483
482
483
471
468
463
444
431
425
423
416
415
426
450
481
506
518
519
504
484
474
477
481
484
482
487
490
494
484
466
458
458
467
484
506
516
503
491
481
481
485
483
485
498
509
507
496
483
488
509
520
514
507
508
519
515
497
485
478
469
464
472
482
503
520
516
505
513
528
527
508
496
491
483
466
460
468
483
508
514
505
493
487
490
489
481
473
468
468
469
464
461
472
488
500
496
490
497
510
504
495
497
510
531
561
557
537
531
521
507
506
509
510
499
490
507
539
550
536
506
479
467
455
448
452
472
495
509
500
495
489
490
499
513
524
530
533
533
534
543
549
552
542
524
518
522
525
525
509
482
476
503
531
526
513
529
533
496
472
470
481
472
458
460
472
476
484
491
498
522
544
573
615
674
752
826
877
907
914
909
883
851
818
775
730
675
616
556
487
432
411
417
422
413
397
391
404
424
445
449
438
431
434
437
436
446
451
447
446
452
460
465
453
442
458
475
494
512
529
544
549
537
515
497
502
519
532
549
554
549
552
551
537
522
521
537
552
539
524
520
501
466
440
429
451
477
495
499
492
481
478
477
483
497
520
525
508
492
487
495
509
515
515
509
519
540
551
546
527
510
508
514
516
517
528
559
600
632
631
604
575
557
546
549
558
559
556
551
553
560
564
571
582
588
593
595
602
602
599
602
609
620
638
658
656
634
621
633
644
642
627
613
606
615
628
628
623
606
583
566
553
547
545
552
567
579
578
560
547
539
532
520
502
500
483
474
486
497
495
470
432
412
407
404
404
411
421
423
424
424
421
410
402
409
417
416
423
430
440
452
454
443
431
429
443
470
498
499
473
454
435
406
392
380
389
420
447
467
483
492
497
496
480
462
458
465
476
481
475
472
479
478
468
480
518
561
590
589
550
509
488
485
484
505
537
563
558
537
530
517
505
501
498
514
522
535
575
617
633
606
561
542
539
555
564
565
561
560
563
563
560
555
556
571
566
545
544
556
575
583
579
584
592
592
589
589
593
588
590
591
583
565
555
569
578
571
554
552
551
555
569
566
551
544
567
583
586
581
573
562
553
553
559
572
593
600
596
583
569
561
559
558
564
589
610
619
619
624
636
649
641
614
608
610
621
642
659
674
682
685
688
670
646
636
638
647
649
659
655
637
625
626
630
628
624
620
613
605
598
600
612
629
635
636
641
635
624
616
621
631
629
601
578
566
571
607
638
641
620
604
581
565
568
587
605
616
608
595
584
585
591
595
597
593
582
564
545
534
541
556
566
561
565
575
574
571
578
594
601
591
576
567
565
567
564
568
583
586
571
558
551
550
554
573
587
595
606
626
657
683
671
603
532
503
510
524
526
522
517
507
503
525
544
542
527
518
517
524
530
525
515
506
500
495
501
522
547
567
583
600
600
578
538
521
527
526
518
507
497
495
502
491
485
503
526
550
567
573
564
553
546
552
552
545
537
541
556
559
556
562
569
572
570
577
598
605
601
593
594
594
581
568
568
574
569
542
520
528
538
541
538
537
537
534
549
575
593
600
591
572
560
562
577
581
569
548
536
537
546
553
557
567
570
579
611
649
681
714
758
806
845
896
934
933
895
839
788
733
667
600
530
461
419
393
379
375
367
351
340
349
375
398
423
443
467
487
490
481
466
438
401
381
381
378
386
397
408
417
424
432
443
462
478
490
492
474
458
448
432
426
432
447
458
469
481
488
490
486
504
519
514
496
476
470
472
466
477
498
514
516
503
481
476
486
486
476
467
473
480
476
466
463
464
471
484
498
508
518
525
522
515
514
506
506
501
493
485
468
463
464
470
478
489
502
515
535
558
570
568
552
532
521
513
508
499
507
529
543
549
555
559
557
549
565
596
615
617
619
603
569
543
534
536
541
547
565
591
619
614
582
560
538
527
510
498
493
495
506
523
531
527
511
491
473
466
471
482
499
507
482
440
407
383
374
387
401
401
386
375
370
361
352
364
372
370
372
387
398
399
379
362
345
331
328
331
337
341
356
377
381
366
351
361
371
386
401
405
417
438
443
421
397
393
403
423
441
441
435
432
429
421
416
413
410
390
378
393
422
441
446
451
466
482
483
464
455
468
479
478
469
460
462
460
458
455
455
469
492
506
502
488
482
484
487
490
487
480
472
462
458
460
450
427
431
462
483
494
502
506
503
497
472
440
429
432
443
459
463
458
450
444
438
443
454
461
468
466
465
477
490
486
472
470
462
442
433
429
423
429
449
455
452
438
444
468
487
498
494
463
425
409
413
436
461
474
478
479
468
451
447
453
459
476
480
464
457
462
471
483
504
512
508
499
498
492
495
495
488
487
487
475
459
459
484
509
531
549
541
519
498
489
489
470
458
465
481
498
510
523
521
496
453
431
426
435
452
466
482
492
497
502
500
496
494
492
502
516
528
533
528
507
492
493
489
488
501
519
538
548
550
536
516
500
498
516
540
548
532
506
494
485
478
467
469
470
465
461
483
519
546
541
518
498
488
499
523
535
539
537
532
528
521
506
486
493
492
487
490
496
500
509
521
530
534
529
518
523
538
551
548
528
503
476
470
486
503
525
541
557
556
537
511
510
533
538
526
522
533
543
543
527
510
505
503
509
512
510
508
509
512
517
530
546
555
556
555
566
575
580
574
559
543
538
542
548
560
580
588
581
564
540
533
534
532
525
514
510
501
493
479
468
461
469
507
542
546
524
499
495
501
493
485
480
472
475
481
488
491
490
496
508
541
592
657
719
786
862
910
925
898
848
800
767
742
696
619
539
468
420
397
371
356
351
353
368
380
386
377
376
384
397
403
393
378
381
397
408
415
424
429
426
418
415
427
445
462
470
463
440
407
378
368
379
401
413
416
430
454
468
475
475
460
453
452
443
444
458
462
456
449
446
451
449
433
421
432
452
472
497
506
495
480
462
468
491
495
468
443
439
444
451
463
481
492
494
494
500
506
507
513
522
530
533
535
534
536
538
541
549
563
576
581
577
569
566
556
546
534
534
544
560
577
573
576
592
604
611
615
614
619
619
612
614
613
609
605
616
644
674
703
718
710
664
605
564
559
564
566
574
573
572
578
581
579
598
623
622
603
588
558
527
511
513
524
533
531
516
512
515
506
481
448
426
438
460
469
476
480
481
480
454
429
417
414
412
415
428
428
421
422
430
436
429
425
430
451
476
479
456
434
428
437
446
458
469
477
475
452
440
431
430
433
439
450
451
452
451
451
463
481
492
488
474
457
451
451
456
464
472
475
482
481
477
466
465
467
468
475
478
477
486
488
495
498
513
548
566
547
510
473
462
476
497
493
486
482
481
488
493
501
504
508
511
504
497
508
530
539
533
533
532
533
524
499
473
470
477
471
461
452
456
468
488
512
523
522
514
510
507
498
489
488
490
491
486
487
500
522
541
550
537
530
542
554
550
540
518
506
505
509
504
493
496
505
529
537
521
512
514
518
520
529
539
541
524
498
488
499
504
514
521
523
532
548
560
559
554
546
542
546
551
556
552
558
564
564
574
589
574
549
543
540
545
552
556
567
561
553
544
533
534
545
560
572
581
574
573
583
592
586
561
528
521
532
535
528
535
559
577
572
558
546
545
553
551
539
528
521
525
531
531
535
544
547
557
563
564
559
555
559
564
565
555
548
549
553
554
555
558
541
533
534
544
557
563
551
535
523
532
559
568
544
518
511
524
539
548
552
535
504
483
480
491
514
536
544
540
536
535
533
528
525
518
503
500
512
528
536
548
560
560
548
536
539
539
535
550
551
536
510
487
475
481
502
525
554
583
596
587
566
546
541
557
578
581
576
581
602
610
585
553
540
550
561
567
571
565
554
548
548
554
554
559
560
566
565
563
557
555
554
543
527
525
536
539
546
541
539
531
515
501
498
493
496
510
523
540
559
575
593
630
676
730
788
854
911
953
976
968
930
871
803
734
664
580
514
464
426
406
396
391
388
398
418
434
445
467
484
470
452
436
426
424
429
440
456
458
446
440
442
438
440
454
472
472
468
472
482
490
491
485
480
480
470
485
513
540
560
563
537
497
472
475
487
495
504
508
507
501
500
500
509
519
525
527
536
547
552
552
558
565
565
552
542
543
543
534
534
550
542
539
551
563
571
576
580
583
596
605
599
591
592
587
566
553
552
559
574
584
585
582
590
597
605
638
678
697
684
649
627
618
621
620
618
628
640
650
651
652
643
630
631
656
687
704
697
683
657
635
631
621
608
607
617
635
647
641
637
643
639
623
607
594
580
564
546
532
524
516
505
502
500
490
478
467
467
490
523
531
501
472
459
453
453
443
428
406
388
391
396
394
394
394
382
372
369
376
398
412
404
397
396
402
412
413
410
407
398
394
398
406
405
404
412
425
438
437
430
431
430
428
418
413
429
454
473
484
493
493
475
462
457
451
456
463
465
480
506
511
506
506
510
510
511
521
542
553
546
529
519
503
502
501
486
485
502
520
533
531
525
518
520
531
538
537
547
561
555
533
518
529
524
513
517
517
517
513
512
521
532
538
532
533
532
528
527
509
500
500
509
512
508
497
490
497
508
515
517
523
519
513
519
518
503
496
491
493
496
505
534
550
533
506
484
476
480
487
480
474
471
474
474
470
482
500
497
486
491
496
493
495
499
503
502
505
512
516
501
492
479
471
466
471
490
514
533
538
527
503
476
470
481
491
498
504
509
501
498
496
487
483
494
515
534
545
548
536
516
496
490
482
473
467
460
462
482
505
503
493
491
488
495
509
518
524
529
529
526
524
508
489
490
496
499
506
518
522
520
522
526
520
516
517
521
530
527
525
525
515
505
495
482
465
463
475
492
505
502
501
503
494
485
484
487
486
490
499
505
505
499
502
509
510
498
490
495
505
526
547
555
546
522
488
481
489
501
506
491
476
478
485
482
477
477
478
484
503
515
511
487
465
448
447
465
475
479
480
483
489
505
519
522
512
501
505
517
528
517
494
475
449
431
420
418
434
453
465
468
470
474
483
492
499
502
488
471
469
465
455
456
465
476
468
460
458
467
483
511
547
593
655
713
769
827
874
892
894
874
831
774
710
635
558
494
443
399
366
348
345
348
354
364
376
392
411
427
439
454
464
461
448
435
429
439
440
448
453
457
469
476
466
455
443
433
435
454
467
461
459
469
477
471
467
472
490
498
506
502
484
465
462
469
474
475
477
479
489
506
525
528
505
489
493
488
483
484
489
497
505
504
483
462
467
496
527
550
557
546
540
536
520
495
479
487
508
526
539
537
538
546
548
538
534
544
556
566
558
561
578
594
608
608
598
587
579
572
559
548
557
577
588
584
594
611
621
624
621
633
652
652
653
640
620
618
621
621
631
652
656
635
608
587
567
568
577
595
613
607
590
578
571
555
541
533
518
514
509
507
508
508
495
485
479
472
465
465
470
472
460
446
430
419
407
394
391
400
419
430
439
437
430
425
412
401
392
385
382
382
384
385
382
373
371
377
379
381
381
386
400
410
422
431
427
411
411
422
426
419
414
416
421
432
444
455
458
464
476
495
505
490
459
444
452
459
445
446
456
471
477
479
484
484
481
484
487
502
512
508
497
494
505
520
525
523
522
516
514
513
509
502
502
497
486
481
483
490
514
532
545
544
531
527
540
549
538
516
494
490
489
482
482
489
496
497
500
502
503
500
497
496
502
516
524
507
488
499
525
550
562
562
551
530
518
527
544
549
552
562
571
561
541
523
514
515
512
527
552
556
544
523
512
528
556
568
567
558
567
578
576
576
587
602
590
564
540
519
514
524
534
539
540
541
542
546
557
578
596
596
590
583
598
622
635
639
631
627
626
620
619
632
661
681
699
709
709
725
739
740
746
746
733
724
725
736
752
759
760
761
755
753
752
745
737
724
716
714
714
709
707
691
674
670
680
682
680
683
687
693
691
670
661
663
656
633
614
607
603
607
606
608
602
600
610
617
603
587
572
568
564
561
562
563
556
556
560
549
539
537
528
526
550
581
592
582
540
498
483
482
481
480
480
486
491
495
500
512
519
513
510
510
513
510
509
507
504
501
493
479
469
468
475
474
477
487
488
480
469
471
477
484
487
467
459
467
478
488
503
503
489
474
455
444
458
486
505
508
507
511
505
499
486
474
474
470
470
462
456
457
453
451
456
473
495
495
472
457
458
454
455
471
488
493
481
472
477
492
505
520
539
567
598
642
701
765
837
909
967
1008
1015
1000
979
953
924
884
827
763
695
624
578
560
564
576
582
600
623
646
671
688
687
684
675
652
647
655
668
693
712
708
701
687
687
694
694
688
681
671
660
651
644
640
642
651
661
667
662
654
643
629
617
608
592
568
560
568
568
556
552
543
527
519
512
510
512
514
518
521
511
490
476
470
470
476
482
481
485
495
503
508
499
482
465
455
441
448
481
524
557
564
551
527
494
467
448
445
451
458
470
484
493
484
466
460
469
476
474
476
470
467
472
477
484
479
464
465
482
498
520
541
538
530
513
507
533
566
579
559
525
494
478
472
469
470
473
471
461
471
498
519
527
523
509
498
489
476
468
462
445
425
401
373
358
360
365
367
358
357
368
369
354
341
338
348
360
361
353
337
312
290
291
303
314
325
343
349
353
360
363
351
343
350
357
357
361
366
370
375
375
366
363
368
379
384
378
370
376
393
415
430
421
396
366
348
339
346
355
360
370
374
369
365
360
363
361
348
348
364
378
377
374
375
382
383
373
354
338
333
329
317
317
322
338
349
335
320
315
315
318
323
324
317
320
336
346
354
353
345
342
341
348
347
336
340
359
361
352
359
364
359
360
357
333
316
320
327
328
326
338
365
385
393
391
381
381
387
389
392
396
397
394
389
380
368
362
373
399
411
410
420
427
416
388
377
389
409
420
426
417
422
433
436
430
419
394
390
400
419
433
453
465
470
480
491
496
481
459
459
467
478
485
486
490
496
495
490
487
493
492
488
490
488
483
473
464
467
476
476
470
470
474
474
473
475
465
457
459
475
488
488
484
489
485
474
473
470
478
493
490
477
473
469
456
446
441
440
449
455
461
455
455
468
489
498
468
448
461
483
492
490
492
491
478
469
475
479
465
455
457
459
453
442
445
460
484
512
526
529
520
515
503
471
437
421
418
425
430
441
453
460
467
474
487
501
504
490
476
473
475
475
476
472
462
451
449
466
483
490
495
508
516
507
496
482
470
483
495
491
498
509
510
499
487
479
478
484
490
494
497
506
502
497
498
508
520
528
527
523
501
491
497
501
499
496
498
497
495
494
500
526
549
564
568
545
516
499
503
515
530
542
552
557
549
533
507
491
502
509
514
506
506
518
519
505
494
482
469
474
478
476
472
471
473
467
466
473
477
492
508
516
527
553
584
637
708
770
829
891
927
919
882
842
801
735
668
608
550
488
452
438
429
404
369
340
327
328
339
366
400
413
433
463
478
472
454
454
468
480
482
488
492
489
481
468
456
455
461
478
489
497
497
480
466
461
464
465
460
464
476
477
479
479
482
484
495
507
509
506
502
492
477
468
469
478
486
488
491
515
549
568
553
528
508
497
493
496
501
505
522
546
546
534
527
522
536
559
564
555
552
568
585
588
573
561
555
555
553
559
575
584
576
554
553
572
590
596
596
598
610
638
659
653
625
609
614
627
637
629
616
607
598
607
623
645
664
672
675
669
661
655
637
615
614
637
659
673
677
681
663
632
607
593
578
572
570
564
560
559
565
577
578
563
537
506
491
483
466
453
458
464
476
488
482
472
457
445
451
456
455
436
415
399
380
376
376
381
386
400
411
425
429
419
412
408
407
399
392
402
413
419
430
443
434
415
412
424
445
468
470
456
446
445
428
405
397
414
440
462
471
478
481
466
446
435
437
449
454
450
450
473
509
528
512
493
479
467
464
468
475
481
496
488
463
440
427
444
476
501
513
524
516
497
489
498
504
500
497
504
508
508
512
508
512
521
519
516
516
515
505
485
473
471
472
483
492
486
495
516
536
533
513
513
518
510
488
480
480
478
484
479
480
480
477
473
470
468
478
498
523
544
537
508
479
465
472
492
501
496
483
476
484
496
506
518
523
528
521
497
482
477
478
486
498
507
510
505
490
488
488
487
490
494
500
506
501
489
493
511
522
516
506
502
501
500
500
509
514
510
509
502
502
501
491
488
492
497
502
505
489
472
462
458
470
487
491
497
497
492
496
508
526
537
535
525
511
509
525
543
549
533
495
463
451
452
459
465
476
496
511
525
531
521
507
499
496
484
483
491
493
494
489
486
485
496
502
501
514
528
531
534
533
526
506
494
490
500
512
515
516
512
503
496
497
514
541
555
530
479
449
452
479
498
506
504
499
524
546
545
533
515
500
499
501
491
483
481
490
508
519
523
516
502
496
494
501
515
522
530
540
535
533
543
548
541
532
516
502
507
514
527
537
543
557
563
559
538
529
539
545
546
534
518
512
516
513
508
508
517
515
510
506
501
494
491
500
512
521
527
536
545
539
534
529
518
509
504
513
521
521
527
525
510
501
507
514
498
482
485
502
511
512
511
508
507
504
512
545
602
665
719
776
837
885
919
929
906
851
782
709
640
574
511
454
406
361
338
335
347
370
387
394
390
381
384
408
430
442
445
456
471
477
474
473
470
462
464
475
479
478
475
467
462
465
471
473
482
490
491
491
483
478
478
471
454
452
459
471
494
514
513
494
477
469
466
469
480
494
497
500
513
520
517
510
523
535
524
506
500
499
512
530
541
552
565
575
560
553
565
574
566
550
533
519
513
517
518
512
515
532
551
568
577
577
571
569
569
572
574
584
595
599
599
608
607
598
608
625
650
652
638
629
622
620
617
626
650
663
655
635
609
611
636
652
645
637
634
649
663
656
647
640
622
608
610
614
611
597
579
573
574
561
543
538
546
543
527
521
532
530
542
547
534
506
470
445
445
439
425
426
428
429
430
423
422
422
429
434
440
453
466
459
442
430
422
402
368
358
373
396
415
423
415
404
414
434
445
432
421
414
414
413
401
399
403
408
419
424
428
438
446
438
427
423
433
462
471
461
463
467
465
471
479
476
473
467
466
468
475
492
499
503
512
519
514
500
481
473
478
483
497
504
515
517
500
480
470
469
474
481
488
499
496
481
468
475
481
483
485
481
480
486
489
483
495
512
508
494
486
488
497
507
506
502
496
496
505
508
517
534
533
508
499
503
502
500
497
498
496
503
513
512
501
492
486
490
515
534
539
537
519
505
503
497
484
474
484
504
512
512
512
517
511
499
495
494
486
480
477
485
499
503
505
514
512
512
523
538
544
554
559
542
525
528
536
530
507
489
495
505
519
520
511
501
508
514
509
507
509
508
507
511
525
526
500
480
490
505
509
506
498
483
481
514
543
560
563
544
535
535
529
519
511
504
510
529
553
566
578
565
520
489
483
488
491
496
497
492
497
501
510
518
519
513
507
505
508
503
496
500
506
507
503
506
510
524
530
555
583
585
561
533
511
492
489
494
502
512
522
532
534
538
544
541
533
528
519
508
510
519
527
527
536
529
512
505
504
499
497
502
513
536
558
575
586
570
548
534
516
501
494
502
515
525
523
517
507
510
520
534
540
545
559
570
570
573
572
566
555
534
520
509
511
509
499
501
523
528
535
556
569
566
563
559
543
529
533
549
558
557
553
548
542
535
527
528
534
531
541
562
579
582
577
577
571
551
541
542
554
558
549
540
534
533
526
514
521
541
551
572
582
573
555
535
519
502
498
510
518
518
517
510
507
509
512
514
514
516
523
533
549
580
633
693
750
809
861
893
910
910
895
871
830
760
681
607
554
510
478
452
431
423
421
430
438
444
455
462
461
460
456
459
464
457
449
448
445
441
456
477
494
498
489
481
484
495
493
472
451
442
435
430
445
463
473
475
484
495
502
506
518
515
503
487
472
464
463
475
489
500
514
521
526
520
518
520
521
528
526
519
516
511
512
506
512
536
550
545
538
543
553
551
537
520
519
538
559
567
568
563
563
571
565
556
546
533
525
525
540
551
552
556
564
567
573
575
581
589
588
593
591
591
596
602
604
601
602
610
604
606
628
651
643
620
609
612
611
607
612
617
612
610
613
618
618
611
602
589
580
590
605
607
596
581
558
542
546
551
559
562
549
536
520
508
497
495
486
476
482
495
497
475
454
442
439
434
424
415
419
426
438
441
430
413
399
394
399
409
418
420
420
420
423
416
408
403
402
409
420
438
448
450
440
414
393
399
423
455
471
467
456
446
443
447
449
446
450
467
475
472
472
476
476
469
462
466
481
489
487
479
457
440
440
442
449
454
462
474
476
483
481
483
508
533
539
530
512
483
461
455
454
458
463
460
462
471
487
505
504
496
495
491
477
471
475
483
486
478
480
490
504
511
503
488
475
470
472
474
491
512
521
527
518
509
511
536
555
545
528
516
505
494
490
489
480
469
471
478
492
483
475
485
513
527
518
508
504
503
512
519
508
499
489
486
493
509
525
532
530
529
514
495
479
475
481
490
500
504
510
512
514
516
515
516
517
526
536
528
508
497
502
514
524
540
547
530
501
495
518
520
507
502
502
490
478
479
489
503
514
518
516
515
506
494
492
496
494
500
527
543
532
518
518
522
516
510
516
519
525
528
526
523
514
514
508
500
494
494
494
487
481
477
484
493
488
491
497
502
504
505
498
492
487
490
498
504
518
518
514
517
516
504
501
525
543
543
543
557
556
534
501
465
443
443
452
460
483
524
550
548
541
544
538
528
538
548
555
538
510
489
467
438
425
443
479
501
515
525
538
540
521
513
519
523
515
505
489
478
474
487
500
517
522
492
483
509
543
557
552
517
469
456
478
483
481
494
487
459
436
429
436
443
445
438
418
392
374
383
415
451
472
459
430
410
406
398
383
382
398
418
424
406
370
349
342
348
354
371
407
446
471
471
470
455
428
408
402
399
388
391
404
408
414
435
448
435
424
420
433
430
424
428
438
458
509
567
631
696
734
743
759
806
861
871
813
706
629
595
534
404
252
152
92
57
36
23
14
10
7
4
3
3
2
2
2
1
1
1
1
1
1
1
1
1
1
1
1
1
1
1
1
1
421
949
1023
1023
1023
1023
1023
1023
1023
1023
1023
1023
1023
1023
1023
1023
1023
1023
1023
1023
1023
1023
1023
1023
1023
1023
1023
1023
1023
1023
1023
1023
1023
1023
1023
1023
1023
1023
1023
1023
1023
1023
1023
1023
1023
1023
1023
1023
1023
1023
1023
1023
1023
1023
1023
1023
1023
1023
1023
1023
1023
1023
1023
1023
1023
791
473
283
172
106
356
915
1023
1023
981
575
340
204
124
76
329
899
1023
1023
984
577
341
204
124
76
323
895
1023
1023
983
576
340
203
124
76
324
896
1023
1023
979
574
339
203
123
76
323
895
1023
1023
987
578
341
204
124
76
323
895
1023
1023
984
576
340
203
123
76
319
893
1023
1023
988
579
342
204
124
76
321
894
1023
1023
992
581
343
205
125
76
327
897
1023
1023
993
581
343
205
124
76
327
898
1023
1023
997
584
344
206
125
77
331
900
1023
1023
996
583
344
206
125
77
334
902
1023
1023
1000
585
345
207
125
77
338
904
1023
1023
999
585
345
207
125
77
346
909
1023
1023
1003
587
347
207
126
77
356
914
1023
1023
1005
588
347
208
126
77
361
917
1023
1023
1002
587
346
207
126
77
371
923
1023
1023
1012
593
350
209
127
78
374
925
1023
1023
1009
591
349
208
126
77
378
927
1023
1023
1009
591
349
208
126
77
383
930
1023
1023
1017
595
352
210
127
78
388
932
1023
1023
1016
594
351
210
127
78
390
934
1023
1023
1023
600
354
212
128
79
387
932
1023
1023
1023
601
355
212
129
79
386
931
1023
1023
1023
602
356
212
129
79
379
928
1023
1023
1023
613
362
216
131
80
376
926
1023
1023
1023
616
364
217
132
80
374
925
1023
1023
1023
617
364
218
132
80
367
921
1023
1023
1023
621
367
219
133
81
358
916
1023
1023
1023
607
358
214
130
79
213
824
1023
1023
901
529
312
187
113
70
68
660
1023
674
391
231
139
84
52
32
20
13
9
6
4
3
2
2
2
1
1
1
1
1
1
1
1
1
1
1
1
1
1
1
1
1
1
1
1
1
1
1
1
38
609
1023
1023
1023
1023
1023
1023
710
789
1023
1023
1023
1023
1023
1023
1023
1023
1023
1023
1023
1023
1023
1023
1023
1023
1023
1023
1023
1023
1023
1023
1023
1023
1023
1023
1023
1023
1023
1023
1023
1023
1023
1023
1023
1023
1023
1023
1023
1023
1023
1023
1023
1023
1023
1023
1023
1023
1023
1023
1023
1023
1023
1023
1023
1023
1023
1023
1023
1023
1023
1023
1023
1023
1023
1023
1023
1023
1023
1023
1023
1023
1023
1023
1023
1023
1023
1023
1023
1023
1023
1023
1023
1023
1023
1023
1023
1023
1023
1023
1023
1023
1023
1023
1023
1023
1023
1023
1023
1023
1023
1023
1023
1023
1023
1023
1023
1023
1023
1023
1023
1023
1023
1023
1023
1023
1023
1023
1023
1023
1023
1023
1023
1023
1023
1023
1023
1023
1023
1023
1023
1023
1023
1023
1023
1023
1023
1023
1023
1023
1023
1023
1023
1023
1023
1023
1023
1023
1023
1023
1023
1023
1023
1023
1023
1023
1023
1023
1023
1023
1023
1023
1023
1023
1023
1023
1023
1023
1023
1023
1023
1023
1023
1023
1023
1023
1023
1023
1023
1023
1023
1023
1023
1023
1023
1023
1023
1023
1023
1023
1023
1023
1023
1023
1023
1023
1023
1023
1023
1023
1023
1023
1023
1023
1023
1023
1023
1023
1023
1023
1023
1023
1023
1023
1023
1023
1023
1023
1023
1023
1023
1023
1023
1023
1023
1023
1023
935
913
1023
1023
1023
1023
1023
1023
946
775
647
653
867
1023
1023
1023
1023
1023
859
732
663
733
1008
1023
1023
1023
1023
1023
1023
1023
1023
1023
1023
1023
1023
1023
1023
1023
1023
1023
1023
1023
1023
1023
1023
1023
1023
1023
1023
1023
1023
1023
1023
1023
1023
1023
1023
1023
1023
1023
1023
1023
1023
1023
1023
1023
1023
1023
1023
1023
1023
1023
1023
1023
1023
1023
1023
1023
1023
1023
1023
1023
1023
1023
1023
1023
1023
1023
1023
1023
1023
1023
1023
1023
1023
1023
1023
1023
1023
1023
1023
1023
1023
1023
1023
1023
1023
1023
1023
1023
1023
1023
1023
1023
1023
1023
1023
1023
1023
1023
1023
1023
1023
1023
1023
1023
1023
1023
1023
1023
1023
1023
1023
1023
1023
1023
1023
1023
1023
1023
1023
1023
1023
1023
1023
1023
1023
1023
1023
1023
1023
1023
1023
1023
1023
1023
1023
1023
1023
1023
1023
1023
1023
1023
1023
1023
1023
1023
1023
1023
1023
1023
1023
1023
1023
1023
1023
1023
1023
1023
1023
1023
1023
1023
1023
1023
1023
1023
1023
1023
1023
1023
1023
1023
1023
1023
1023
1023
1023
1023
1023
1023
1023
1023
1023
1023
1023
1023
1023
1023
1023
1023
1023
1023
1023
1023
1023
1023
1023
1023
1023
1023
1023
1023
1023
1023
1023
1023
1023
1023
1023
1023
1023
1023
1023
1023
1023
1023
1023
1023
1023
1023
1023
1023
1023
1023
1023
1023
1023
1023
1023
1023
1023
1023
1023
1023
1023
1023
1023
1023
1023
1023
1023
1023
1023
1023
1023
1023
1023
1023
1023
1023
1023
1023
1023
1023
1023
1023
1023
1023
1023
1023
1023
1023
1023
1006
836
1023
1023
1023
908
539
324
197
121
75
49
364
892
1023
693
407
241
146
89
55
36
362
897
1023
695
407
241
146
89
55
37
392
923
1023
731
429
254
153
93
57
41
422
945
1023
776
455
269
162
98
60
47
459
970
1023
827
485
287
172
104
64
47
456
969
1023
819
480
284
170
103
64
45
456
969
1023
850
498
294
176
107
66
46
462
973
1023
903
528
312
187
113
69
51
492
990
1023
897
525
310
186
113
69
56
525
1009
1023
933
546
322
193
117
72
62
546
1021
1023
944
552
326
195
118
72
65
563
1023
1023
957
559
330
198
120
73
69
579
1023
1023
975
570
336
201
122
75
73
590
1023
1023
998
582
344
206
125
76
61
555
1023
1023
1023
752
445
264
159
97
106
653
1023
1023
1023
771
456
271
163
100
83
596
1023
1023
1023
753
445
265
160
97
70
554
1023
1023
1023
731
432
257
155
95
61
508
1000
1023
1023
690
407
242
147
89
55
453
968
1023
1023
619
365
218
132
80
50
430
955
1023
1023
751
443
264
159
97
59
37
23
15
10
7
5
4
3
2
2
1
1
1
1
1
1
1
1
1
1
5
174
99
57
33
20
12
7
5
3
2
2
1
1
1
1
1
1
1
1
1
1
1
1
1
1
1
1
1
1
1
1
1
1
1
1
1
1
1
1
1
1
1
1
1
1
1
1
1
1
1
1
1
1
1
1
1
1
1
1
1
1
0
1
1
1
1
1
1
1
1
1
0
1
1
1
1
1
1
1
1
1
1
0
1
1
1
1
1
0
1
0
1
1
1
1
1
1
1
1
1
1
1
1
1
1
1
1
1
1
1
1
1
1
1
0
1
1
1
1
1
1
0
0
1
1
0
1
1
1
1
1
0
1
0
1
0
1
1
1
1
1
0
1
1
1
1
1
1
1
1
1
0
1
1
0
1
1
0
1
1
1
1
1
1
1
0
1
1
1
1
1
1
1
1
1
1
0
0
1
1
1
1
1
1
24
192
188
108
63
37
22
13
8
5
181
543
619
372
218
130
78
47
29
24
381
874
1008
676
393
232
140
85
52
76
586
1023
1023
961
560
330
198
120
73
150
726
1023
1023
1023
703
415
247
150
91
223
810
1023
1023
1023
826
488
290
175
107
303
877
1023
1023
1023
953
562
334
200
122
394
936
1023
1023
1023
1023
621
369
221
134
453
970
1023
1023
1023
1023
658
391
234
142
479
985
1023
1023
1023
1023
675
401
240
146
494
993
1023
1023
1023
1023
684
407
243
148
486
989
1023
1023
1023
1023
687
408
244
148
488
990
1023
1023
1023
1023
703
418
250
152
513
1005
1023
1023
1023
1023
724
431
257
156
536
1017
1023
1023
1023
1023
744
442
264
160
553
1023
1023
1023
1023
1023
754
448
268
162
559
1023
1023
1023
1023
1023
760
452
270
164
564
1023
1023
1023
1023
1023
763
454
271
164
565
1023
1023
1023
1023
1023
766
455
272
164
566
1023
1023
1023
1023
1023
769
457
273
165
565
1023
1023
1023
1023
1023
772
459
274
166
560
1023
1023
1023
1023
1023
768
457
273
165
548
1023
1023
1023
1023
1023
759
451
270
163
533
1016
1023
1023
1023
1023
748
445
266
161
514
1005
1023
1023
1023
1023
742
441
264
160
503
999
1023
1023
1023
1023
736
438
262
158
494
994
1023
1023
1023
1023
733
436
261
158
486
990
1023
1023
1023
1023
729
433
259
157
477
984
1023
1023
1023
1023
727
432
258
156
472
981
1023
1023
1023
1023
729
433
259
157
468
979
1023
1023
1023
1023
733
436
261
158
463
976
1023
1023
1023
1023
732
435
260
157
452
970
1023
1023
1023
1023
727
432
258
156
441
964
1023
1023
1023
1023
723
430
257
156
424
954
1023
1023
1023
1023
718
427
255
154
412
947
1023
1023
1023
1023
717
426
255
154
413
947
1023
1023
1023
1023
716
426
254
154
388
934
1023
1023
1023
1023
704
418
250
152
370
923
1023
1023
1023
1023
700
416
249
151
361
918
1023
1023
1023
1023
696
414
247
150
348
910
1023
1023
1023
1023
691
410
245
149
332
900
1023
1023
1023
1023
689
410
245
149
323
894
1023
1023
1023
1023
685
407
243
148
303
881
1023
1023
1023
1023
673
400
239
145
286
869
1023
1023
1023
1023
665
395
236
144
270
857
1023
1023
1023
1023
659
392
235
142
254
846
1023
1023
1023
1023
651
387
231
141
248
841
1023
1023
1023
1023
658
391
234
142
253
845
1023
1023
1023
1023
665
396
237
144
245
838
1023
1023
1023
1023
662
393
235
143
230
825
1023
1023
1023
1023
655
389
233
141
217
814
1023
1023
1023
1023
651
387
231
141
208
805
1023
1023
1023
1023
651
387
231
141
210
807
1023
1023
1023
1023
658
391
234
142
208
804
1023
1023
1023
1023
659
391
234
142
197
793
1023
1023
1023
1023
651
387
231
141
186
780
1023
1023
1023
1023
650
386
231
140
181
775
1023
1023
1023
1023
656
389
233
142
176
770
1023
1023
1023
1023
664
394
236
143
175
768
1023
1023
1023
1023
672
399
238
145
171
761
1023
1023
1023
1023
679
403
241
146
164
751
1023
1023
1023
1023
681
404
242
147
157
740
1023
1023
1023
1023
688
409
244
148
153
732
1023
1023
1023
1023
694
412
246
149
151
725
1023
1023
1023
1023
695
413
246
149
125
669
1023
1023
1023
1023
685
407
243
147
90
475
982
1023
1023
1023
612
363
217
132
80
110
490
840
873
545
317
189
113
69
43
64
417
807
911
600
348
206
124
75
46
37
245
470
463
271
159
94
57
35
21
110
431
660
622
368
216
129
78
47
29
136
466
689
649
387
227
135
81
49
30
154
490
716
682
413
241
144
86
52
32
184
535
761
728
449
262
156
94
57
35
226
599
831
800
504
294
175
105
64
40
259
650
888
857
546
318
189
114
69
45
276
681
923
890
568
331
196
118
72
47
293
711
959
925
592
344
205
123
75
50
318
765
1023
1011
655
382
226
137
83
62
385
886
1023
1023
766
449
266
160
97
75
447
956
1023
1023
859
504
299
179
109
84
491
990
1023
1023
920
540
320
192
116
88
522
1008
1023
1023
949
557
330
198
120
90
548
1023
1023
1023
983
576
342
205
124
98
596
1023
1023
1023
1023
617
366
219
133
115
651
1023
1023
1023
1023
660
392
234
142
131
692
1023
1023
1023
1023
699
415
248
150
147
726
1023
1023
1023
1023
739
438
262
158
166
756
1023
1023
1023
1023
766
455
271
164
182
774
1023
1023
1023
1023
781
463
276
167
196
790
1023
1023
1023
1023
795
472
281
170
206
799
1023
1023
1023
1023
791
469
280
169
201
788
1023
1023
1023
1023
749
444
265
160
146
698
1023
1023
1023
1023
641
381
228
138
97
560
1023
1023
1023
945
556
330
198
120
85
491
990
1023
1023
885
520
309
185
112
73
376
881
1023
1023
674
396
235
142
86
57
368
878
1023
1023
696
408
242
146
88
64
380
853
1023
960
576
337
201
121
74
46
104
386
556
442
255
151
90
54
33
21
13
9
6
4
3
2
2
2
1
1
1
1
1
1
1
1
1
1
1
1
1
1
1
1
1
1
1
1
1
1
1
1
1
1
1
1
1
1
1
1
1
1
1
1
1
1
1
1
1
1
1
1
1
1
1
1
1
1
1
1
1
1
1
1
1
1
1
1
1
1
1
1
1
1
1
1
1
1
1
1
0
1
1
1
1
0
1
1
1
1
1
1
1
1
1
1
507
885
565
328
195
117
71
43
203
819
1023
1023
1023
1023
1023
1023
768
1023
1023
1023
1023
1023
1023
1023
1023
1023
1023
1023
1023
1023
1023
1023
1023
1023
1023
1023
1023
1023
1023
1023
1023
1023
1023
1023
1023
1023
1023
1023
1023
1023
1023
1023
1023
1023
1023
1023
1023
1023
1023
1023
1023
1023
1023
1023
1023
1023
1023
1023
1023
1023
1023
1023
1023
1023
1023
1023
1023
1023
1023
1023
1023
1023
1023
1023
1023
1023
1023
1023
1023
1023
1023
1023
1023
1023
1023
1023
1023
1023
1023
1023
1023
1023
1023
1023
1023
1023
1023
1023
1023
1023
1023
1023
1023
1023
1023
1023
1023
1023
1023
1023
1023
1023
1023
1023
1023
1023
1023
1023
1023
1023
1023
1023
1023
1023
1023
1023
1023
1023
1023
1023
1023
1023
1023
1023
1023
1023
1023
1023
1023
1023
1023
1023
1023
1023
1023
1023
1023
1023
1023
1023
1023
1023
1023
1023
1023
1023
1023
1023
1023
1023
1023
1023
1023
1023
1023
1023
1023
1023
1023
1023
1023
1023
1023
1023
1023
1023
1023
1023
1023
1023
1023
1023
1023
1023
1023
1023
1023
1023
1023
1023
1023
1023
1023
1023
1023
1023
1023
1023
1023
1023
1023
1023
1023
1023
1023
1023
1023
1023
1023
1023
1023
1023
1023
1023
1023
1023
1023
1023
1023
1023
1023
1023
1023
1023
1023
1023
1023
1023
1023
1023
1023
1023
1023
1023
1023
1023
1023
1023
1023
1023
1023
1023
1023
1023
1023
1023
1023
1023
1023
1023
1023
1023
1023
1023
1023
1023
1023
1023
1023
1023
1023
1023
1023
1023
1023
1023
1023
1023
1023
1023
1023
1023
1023
1023
1023
1023
1023
1023
1023
1023
1023
1023
1023
1023
1023
1023
1023
1023
1023
1023
1023
1023
1023
1023
1023
1023
1023
1023
1023
1023
1023
1023
1023
1023
1023
1023
1023
1023
1023
1023
1023
1023
1023
1023
1023
1023
1023
1023
1023
1023
1023
1023
1023
1023
1023
1023
1023
1023
1023
1023
1023
1023
1023
1023
1023
1023
1023
1023
1023
1023
1023
1023
1023
1023
1023
1023
1023
1023
1023
1023
1023
1023
1023
1023
1023
1023
1023
1023
1023
1023
1023
1023
1023
1023
1023
1023
1023
1023
1023
1023
1023
1023
1023
1023
1023
1023
1023
1023
1023
1023
1023
1023
1023
1023
1023
1023
1023
1023
1023
1023
1023
1023
1023
1023
1023
1023
1023
1023
1023
1023
1023
1023
1023
1023
1023
1023
1023
1023
1023
1023
1023
1023
1023
1023
1023
1023
1023
1023
1023
1023
1023
1023
1023
1023
1023
1023
1023
1023
1023
1023
1023
1023
1023
1023
1023
1023
1023
1023
1023
1023
1023
1023
1023
1023
1023
1023
1023
1023
1023
1023
1023
1023
1023
1023
1023
1023
1023
1023
1023
1023
1023
1023
1023
1023
1023
1023
1023
1023
1023
1023
1023
1023
1023
1023
1023
1023
1023
1023
1023
1023
1023
1023
1023
1023
1023
1023
1023
1023
1023
1023
1023
1023
1023
1023
1023
1023
1023
1023
1023
1023
1023
1023
1023
1023
1023
1023
1023
1023
1023
1023
1023
1023
1023
1023
1023
1023
1023
1023
1023
1023
1023
1023
1023
1023
1023
1023
1023
1023
1023
1023
1023
1023
1023
1023
1023
1023
1023
1023
1023
1023
1023
1023
1023
1023
1023
1023
1023
1023
1023
1023
1023
1023
1023
1023
1023
1023
1023
1023
1023
1023
1023
1023
1023
1023
1023
1023
1023
1023
1023
1023
1023
1023
1023
1023
1023
1023
1023
1023
1023
1023
1023
1023
1023
1023
1023
1023
1023
1023
1023
1023
1023
1023
1023
1023
1023
1023
1023
1023
1023
1023
1023
1023
1023
1023
1023
1023
1023
1023
1023
1023
1023
1023
1023
1023
1023
1023
1023
1023
1023
1023
1023
1023
1023
1023
1023
1023
1023
1023
1023
1023
1023
1023
1023
1023
1023
1023
1023
1023
1023
1023
1023
1023
1023
1023
1023
1023
1023
1023
1023
1023
1023
1023
1023
1023
1023
1023
1023
1023
1023
1023
1023
1023
1023
1023
1023
1023
1023
1023
1023
1023
1023
1023
1023
1023
1023
1023
1023
1023
1023
1023
1023
1023
1023
1023
1023
1023
1023
1023
1023
1023
1023
1023
1023
1023
1023
1023
1023
1023
1023
1023
1023
1023
1023
1023
1023
1023
1023
1023
1023
1023
1023
1023
1023
1023
1023
1023
1023
1023
1023
1023
1023
1023
1023
1023
1023
1023
1023
1023
1023
1023
1023
1023
1023
1023
1023
1023
1023
1023
1023
1023
1023
1023
1023
1023
1023
1023
1023
1023
1023
1023
1023
1023
1023
1023
1023
1023
1023
1023
1023
1023
1023
1023
1023
1023
1023
1023
1023
1023
1023
1023
1023
1023
1023
1023
1023
1023
1023
1023
1023
1023
1023
1023
1023
1023
1023
1023
1023
1023
1023
1023
1023
1023
1023
1023
1023
1023
1023
1023
1023
1023
1023
1023
1023
1023
1023
1023
1023
1023
1023
1023
1023
1023
1023
1023
1023
1023
1023
1023
1023
1023
1023
1023
1023
1023
1023
1023
1023
1023
1023
1023
1023
1023
1023
1023
1023
1023
1023
1023
1023
1023
1023
1023
1023
1023
1023
1023
1023
1023
1023
1023
1023
1023
1023
1023
1023
1023
1023
1023
1023
1023
1023
1023
1023
1023
1023
1023
1023
1023
1023
1023
1023
1023
1023
1023
1023
1023
1023
1023
1023
1023
1023
1023
1023
1023
1023
1023
1023
1023
1023
1023
1023
1023
1023
1023
1023
1023
1023
1023
1023
1023
1023
1023
1023
1023
1023
1023
1023
1023
1023
1023
1023
1023
1023
1023
1023
1023
1023
1023
1023
1023
1023
1023
1023
1023
1023
1023
1023
1023
1023
1023
1023
1023
1023
1023
1023
1023
1023
1023
1023
1023
1023
1023
1023
1023
1023
1023
1023
1023
1023
1023
1023
1023
1023
1023
1023
1023
1023
1023
1023
1023
1023
1023
1023
1023
1023
1023
1023
1023
1023
1023
1023
1023
1023
1023
1023
1023
1023
1023
1023
1023
1023
1023
1023
1023
1023
1023
1023
1023
1023
1023
1023
1023
1023
1023
1023
1023
1023
1023
1023
1023
1023
1023
1023
1023
1023
1023
1023
1023
1023
1023
1023
1023
1023
1023
1023
1023
1023
1023
1023
1023
1023
1023
1023
1023
1023
1023
1023
1023
1023
1023
1023
1023
1023
1023
1023
1023
1023
1023
1023
1023
1023
1023
1023
1023
1023
1023
1023
1023
1023
1023
1022
1021
1020
1019
1018
1017
1015
1014
1013
1012
1011
1010
1009
1008
1007
1006
1005
1004
1003
1002
1001
1000
999
999
997
997
996
995
994
993
992
991
990
989
988
987
986
985
984
983
982
981
980
979
978
977
977
976
975
974
973
972
971
970
969
968
967
967
966
965
964
963
962
961
960
959
958
957
957
956
955
954
953
952
951
950
949
949
948
947
946
945
944
943
943
942
941
940
939
938
937
936
936
935
934
933
932
932
931
930
929
928
927
926
926
925
924
923
922
922
921
920
919
918
918
917
916
915
914
913
913
912
911
910
910
909
908
907
906
906
905
904
903
902
902
901
900
899
898
898
897
896
895
894
894
893
892
891
891
890
889
889
888
887
886
885
885
884
883
882
882
881
880
879
879
878
878
877
876
875
874
874
873
872
872
871
870
869
869
868
867
866
866
865
864
864
863
863
862
861
860
860
859
858
858
857
856
855
855
854
853
853
852
851
851
850
849
849
848
848
847
846
845
845
844
844
843
842
842
841
840
840
839
838
838
837
836
836
835
834
834
833
832
832
831
831
830
830
829
828
828
827
826
826
825
824
824
823
823
822
821
821
820
819
819
818
818
817
816
816
815
815
814
814
813
812
812
811
811
810
809
809
808
808
807
807
806
805
805
804
803
803
802
802
801
801
800
800
799
799
798
797
797
796
796
795
795
794
793
793
792
792
791
791
790
790
789
789
788
787
787
786
786
785
785
784
784
783
783
782
781
781
780
780
779
779
778
778
777
777
776
775
775
775
774
774
773
773
772
772
771
770
770
770
769
768
768
767
767
766
766
765
765
764
764
763
763
762
762
761
761
760
760
759
759
758
758
757
757
756
756
755
755
754
754
753
753
752
752
751
751
751
750
750
749
749
748
748
748
747
747
746
746
745
745
744
744
743
743
742
742
742
741
741
740
740
739
739
738
738
738
737
737
736
736
735
735
735
734
734
733
733
732
732
732
731
731
730
730
729
729
728
728
728
727
727
726
726
726
725
725
724
724
724
723
723
722
722
722
721
721
720
720
719
719
719
718
718
718
717
717
716
716
716
715
715
714
714
714
713
713
712
712
712
711
711
710
710
710
709
709
708
708
708
707
707
707
706
706
706
705
705
704
704
704
703
703
703
702
702
702
701
701
700
700
700
699
699
699
698
698
697
697
697
696
696
696
695
695
694
694
694
694
693
693
692
692
692
691
691
691
690
690
689
689
689
688
688
688
687
687
687
686
686
686
685
685
685
684
684
684
683
683
683
682
682
682
682
681
681
680
680
680
679
679
679
679
678
678
678
677
677
676
676
676
676
675
675
675
674
674
674
673
673
673
672
672
672
672
671
671
671
670
670
670
669
669
669
669
668
668
668
667
667
667
667
666
666
666
665
665
665
664
664
664
664
663
663
663
662
662
662
662
661
661
659
653
653
655
656
657
658
658
658
658
656
651
652
653
655
655
655
655
655
655
638
581
580
603
623
637
644
648
650
651
617
514
513
556
595
619
634
641
646
648
557
335
302
397
494
561
600
622
635
642
554
320
268
365
473
549
594
619
633
640
486
281
169
190
325
452
537
588
617
628
421
245
146
111
228
379
493
565
607
627
426
248
147
96
193
350
476
558
606
618
390
228
136
82
116
273
424
529
594
617
386
226
134
81
82
227
392
513
589
623
393
229
137
82
67
199
372
504
589
624
385
225
134
80
53
164
345
492
589
621
369
217
129
77
50
163
350
504
606
639
380
222
133
79
51
165
360
521
627
652
380
223
133
80
49
159
363
535
650
648
370
217
130
78
47
148
362
549
675
673
385
226
135
81
50
164
390
584
713
720
412
241
144
87
53
173
409
613
747
746
426
250
149
90
55
177
424
640
782
762
435
255
153
92
57
200
460
682
826
786
450
264
158
95
59
203
476
710
862
823
472
276
165
100
62
217
502
744
902
864
495
290
173
105
66
231
529
780
943
916
526
308
184
111
68
224
534
800
974
927
532
312
186
112
69
235
558
834
1015
977
561
329
196
119
74
256
591
873
1023
1000
575
338
202
122
79
282
631
917
1023
1023
599
352
210
127
80
280
641
941
1023
1023
609
358
214
129
82
295
669
976
1023
1023
633
373
223
135
83
284
668
992
1023
1023
651
384
229
139
87
307
704
1023
1023
1023
671
397
236
143
88
298
707
1023
1023
1023
683
403
241
146
90
308
730
1023
1023
1023
722
427
255
154
97
335
767
1023
1023
1023
730
432
258
156
99
348
792
1023
1023
1023
748
443
264
160
99
341
796
1023
1023
1023
748
443
265
160
99
342
807
1023
1023
1023
756
447
268
162
99
343
819
1023
1023
1023
770
456
272
164
103
364
849
1023
1023
1023
776
459
274
166
102
359
852
1023
1023
1023
778
461
275
166
103
371
870
1023
1023
1023
788
466
278
168
104
373
877
1023
1023
1023
797
472
282
170
105
382
890
1023
1023
1023
796
471
282
170
105
388
899
1023
1023
1023
805
477
285
172
106
388
901
1023
1023
1023
812
480
287
173
107
391
907
1023
1023
1023
813
481
287
173
106
387
906
1023
1023
1023
819
485
289
175
107
392
912
1023
1023
1023
827
489
292
176
108
398
919
1023
1023
1023
832
492
294
177
109
405
926
1023
1023
1023
836
494
295
178
109
406
928
1023
1023
1023
841
497
297
179
110
413
934
1023
1023
1023
842
497
297
179
110
407
931
1023
1023
1023
847
501
299
180
110
416
939
1023
1023
1023
850
502
300
181
110
418
941
1023
1023
1023
856
505
302
182
111
422
944
1023
1023
1023
857
506
303
182
111
426
948
1023
1023
1023
862
509
304
183
112
426
948
1023
1023
1023
864
510
305
184
112
424
948
1023
1023
1023
868
513
306
185
112
427
950
1023
1023
1023
871
515
307
185
113
431
953
1023
1023
1023
876
518
309
186
113
431
953
1023
1023
1023
878
519
310
187
113
430
953
1023
1023
1023
883
522
311
188
114
433
955
1023
1023
1023
885
523
312
188
114
429
953
1023
1023
1023
889
525
313
189
115
431
954
1023
1023
1023
887
524
313
189
115
426
952
1023
1023
1023
892
527
314
189
115
426
951
1023
1023
1023
896
529
316
190
116
423
950
1023
1023
1023
900
531
317
191
116
420
948
1023
1023
1023
901
532
318
191
116
418
947
1023
1023
1023
903
533
318
192
117
417
946
1023
1023
1023
907
535
319
192
117
412
943
1023
1023
1023
906
535
319
192
117
409
942
1023
1023
1023
910
537
320
193
117
406
941
1023
1023
1023
912
538
321
193
118
403
938
1023
1023
1023
915
540
322
194
118
400
937
1023
1023
1023
916
540
322
194
118
396
934
1023
1023
1023
920
543
324
195
118
397
935
1023
1023
1023
922
544
324
195
119
397
935
1023
1023
1023
928
547
326
197
119
398
936
1023
1023
1023
936
552
329
198
120
400
937
1023
1023
1023
944
556
332
200
121
405
941
1023
1023
1023
954
562
335
202
123
411
944
1023
1023
1023
965
568
339
204
124
416
947
1023
1023
1023
975
574
342
206
125
420
950
1023
1023
1023
985
579
345
208
126
423
952
1023
1023
1023
995
585
349
210
128
425
953
1023
1023
1023
1004
590
352
212
129
426
954
1023
1023
1023
1014
596
355
214
130
429
955
1023
1023
1023
1022
600
358
215
131
431
956
1023
1023
1023
1023
605
361
217
132
431
956
1023
1023
1023
1023
609
363
218
133
431
957
1023
1023
1023
1023
614
366
220
134
432
957
1023
1023
1023
1023
618
368
221
134
431
957
1023
1023
1023
1023
622
371
223
135
431
957
1023
1023
1023
1023
625
372
224
136
429
956
1023
1023
1023
1023
629
375
225
137
429
956
1023
1023
1023
1023
632
377
226
138
427
955
1023
1023
1023
1023
636
379
227
138
426
954
1023
1023
1023
1023
640
381
229
139
424
953
1023
1023
1023
1023
643
383
230
140
423
952
1023
1023
1023
1023
647
385
231
141
421
951
1023
1023
1023
1023
650
387
232
141
420
950
1023
1023
1023
1023
653
389
234
142
417
949
1023
1023
1023
1023
657
392
235
143
415
948
1023
1023
1023
1023
661
394
236
143
413
946
1023
1023
1023
1023
664
396
237
144
411
945
1023
1023
1023
1023
668
398
239
145
409
944
1023
1023
1023
1023
672
400
240
146
407
943
1023
1023
1023
1023
674
401
241
146
403
941
1023
1023
1023
1023
677
403
242
147
401
939
1023
1023
1023
1023
681
405
243
147
398
937
1023
1023
1023
1023
684
407
244
148
395
935
1023
1023
1023
1023
687
409
245
149
392
934
1023
1023
1023
1023
690
411
246
149
389
932
1023
1023
1023
1023
693
413
247
150
386
930
1023
1023
1023
1023
696
415
248
151
382
927
1023
1023
1023
1023
698
416
249
151
375
923
1023
1023
1023
1023
698
415
249
151
365
916
1023
1023
1023
1023
697
415
248
151
356
911
1023
1023
1023
1023
696
414
248
150
346
904
1023
1023
1023
1023
694
413
247
150
335
896
1023
1023
1023
1023
692
412
247
150
323
887
1023
1023
1023
1023
689
410
246
149
311
878
1023
1023
1023
1023
687
409
245
149
300
870
1023
1023
1023
1023
684
407
244
148
290
863
1023
1023
1023
1023
682
406
243
148
282
856
1023
1023
1023
1023
680
405
242
147
272
848
1023
1023
1023
1023
678
403
242
147
263
841
1023
1023
1023
1023
674
401
240
146
251
831
1023
1023
1023
1023
673
400
240
146
241
822
1023
1023
1023
1023
671
399
239
145
234
815
1023
1023
1023
1023
670
399
239
145
226
808
1023
1023
1023
1023
668
398
238
145
218
801
1023
1023
1023
1023
667
397
238
144
209
792
1023
1023
1023
1023
664
395
237
144
201
783
1023
1023
1023
1023
661
394
236
143
192
774
1023
1023
1023
1023
659
392
235
143
185
766
1023
1023
1023
1023
657
391
234
142
176
756
1023
1023
1023
1023
655
390
233
142
169
746
1023
1023
1023
1023
652
388
233
141
162
737
1023
1023
1023
1023
650
387
232
141
155
728
1023
1023
1023
1023
648
386
231
141
148
718
1023
1023
1023
1023
648
385
231
140
141
708
1023
1023
1023
1023
646
385
230
140
135
699
1023
1023
1023
1023
645
384
230
140
130
690
1023
1023
1023
1023
644
383
230
139
124
678
1023
1023
1023
1023
643
382
229
139
118
668
1023
1023
1023
1023
641
381
229
139
113
657
1023
1023
1023
1023
640
380
228
139
109
648
1023
1023
1023
1023
637
379
227
138
104
636
1023
1023
1023
1023
635
378
226
137
101
626
1023
1023
1023
1023
632
376
225
137
97
616
1023
1023
1023
1023
630
375
225
136
94
604
1023
1023
1023
1023
628
374
224
136
91
593
1023
1023
1023
1023
626
372
223
136
88
580
1023
1023
1023
1023
624
371
223
135
86
565
1023
1023
1023
1023
622
370
222
135
83
548
1022
1023
1023
1023
620
369
221
134
82
531
1013
1023
1023
1023
619
368
221
134
82
512
1002
1023
1023
1023
616
366
220
133
81
492
991
1023
1023
1023
613
365
219
133
81
472
979
1023
1023
1023
607
361
216
131
80
449
965
1023
1023
1021
598
355
213
129
79
424
951
1023
1023
1001
586
348
209
127
78
398
936
1023
1023
970
569
338
203
123
75
361
915
1023
1023
901
530
315
189
115
70
321
891
1023
1023
818
482
287
173
105
64
278
863
1023
1023
739
436
260
157
95
58
230
830
1023
1023
660
390
232
140
85
53
186
795
1023
1001
581
343
205
124
75
47
141
754
1023
853
497
294
176
106
65
40
93
699
1023
680
397
235
141
85
52
32
44
618
869
505
295
176
106
64
39
24
16
498
537
308
182
108
65
40
24
15
10
172
108
62
36
22
13
8
6
4
3
2
2
1
1
1
1
1
1
1
1
1
1
1
1
1
1
1
1
1
1
1
1
1
1
1
1
1
1
1
1
1
1
1
1
1
1
1
1
1
1
1
1
1
1
1
1
1
1
1
1
0
1
1
1
1
1
1
1
1
1
1
1
1
1
1
1
1
1
0
1
1
1
1
1
1
1
1
1
1
1
1
1
1
1
1
1
1
1
1
1
1
0
1
1
0
1
1
1
1
1
1
1
0
1
1
0
1
1
1
1
0
1
1
1
1
1
1
1
1
1
1
1
1
1
1
0
1
1
0
1
1
1
1
1
1
1
0
1
1
1
1
1
1
1
0
1
1
1
1
0
1
0
1
1
1
1
1
1
0
1
1
0
1
1
0
0
1
1
1
1
1
1
1
1
1
1
1
1
0
1
0
0
1
0
1
0
1
1
1
0
1
0
1
1
0
1
0
1
1
1
1
1
1
1
1
1
1
1
1
1
0
1
1
1
1
1
1
1
1
1
0
1
1
1
1
1
0
0
1
1
1
1
0
1
0
1
0
1
1
0
0
1
1
1
1
1
1
1
0
1
1
0
1
1
0
1
1
1
1
1
1
1
1
1
0
1
8
5
3
2
1
1
1
1
1
23
57
45
26
15
9
5
3
2
5
60
108
96
55
32
18
11
7
4
17
94
150
141
83
48
28
16
10
6
32
125
186
178
108
63
37
22
13
8
48
153
218
210
132
77
45
27
16
10
68
182
248
240
155
90
53
31
19
12
91
212
279
270
179
104
61
36
22
18
114
238
302
290
195
114
67
40
24
24
129
256
322
310
214
124
73
44
26
30
143
271
336
324
228
133
78
46
28
39
161
292
355
343
247
144
84
50
30
53
184
314
373
358
261
152
89
53
32
62
198
327
386
369
272
159
93
56
33
75
215
339
390
367
267
156
92
55
33
86
230
354
405
384
284
166
98
58
36
98
245
370
421
400
302
177
104
62
41
114
263
388
438
416
318
187
110
66
45
122
273
398
