492
500
508
514
515
509
500
493
489
489
493
501
509
514
513
509
501
494
490
491
495
502
510
514
514
510
502
494
490
490
494
503
511
516
516
511
502
494
489
489
494
503
512
517
518
512
502
495
491
491
496
505
514
519
518
512
503
495
489
488
492
501
510
516
516
509
499
490
485
483
488
496
505
510
511
506
497
490
485
485
489
497
505
510
509
504
495
488
484
485
491
500
508
513
512
505
496
487
481
481
486
495
504
509
509
504
495
486
482
483
489
497
505
509
509
504
494
484
478
478
483
493
503
509
509
502
492
483
479
479
485
495
505
511
511
504
494
486
482
482
488
498
507
513
512
505
496
488
483
483
489
498
507
512
510
504
493
485
481
482
488
498
507
512
510
503
494
486
483
484
490
500
508
513
514
507
497
489
484
485
492
501
509
514
512
505
495
486
481
481
487
497
505
509
507
500
490
481
477
477
483
493
503
508
506
498
488
480
476
478
485
494
502
507
505
498
488
480
475
476
481
491
499
504
503
495
484
476
471
472
479
489
497
500
498
492
481
472
469
470
477
487
496
500
499
490
480
472
470
472
479
489
497
500
499
491
480
471
467
468
475
484
491
495
493
486
477
470
466
467
473
482
490
494
491
483
473
465
462
464
472
482
489
491
488
480
470
462
459
461
468
478
486
490
488
480
470
463
461
463
470
480
487
489
486
477
466
458
455
458
468
479
486
487
482
474
464
457
455
458
466
476
484
488
485
477
466
458
457
460
469
478
485
487
483
474
464
457
455
457
465
475
481
483
481
475
466
460
458
462
470
480
488
491
487
479
470
463
460
462
470
480
488
491
489
481
471
464
463
467
476
486
494
497
493
484
473
465
463
466
475
485
493
496
492
483
473
465
464
469
479
489
495
497
494
486
477
473
473
479
489
498
504
505
501
492
483
476
474
479
489
499
504
506
500
491
482
475
473
477
486
497
503
504
500
491
482
476
475
480
490
500
506
509
506
497
488
482
481
485
493
502
507
508
505
497
487
481
480
484
494
504
510
512
506
495
485
478
475
479
488
498
506
508
504
494
485
478
477
481
491
499
503
502
497
489
481
476
475
480
489
499
505
505
501
492
482
476
475
480
489
498
504
505
501
493
483
478
476
479
489
497
503
503
499
489
480
475
475
481
490
499
503
503
497
487
477
471
470
475
485
494
499
501
496
486
477
471
471
476
486
496
501
501
497
490
482
476
475
480
489
497
501
500
495
486
478
472
471
478
487
496
501
501
494
484
474
469
469
475
485
494
499
498
492
483
476
473
474
481
490
498
501
499
494
485
478
475
476
480
489
497
500
499
492
483
475
471
472
480
490
499
503
502
495
486
478
473
474
481
490
497
500
499
494
485
477
472
473
480
490
497
500
499
493
484
477
474
477
484
494
502
505
503
495
485
477
474
475
482
492
500
503
501
495
486
479
476
478
486
495
503
506
505
498
488
480
477
480
486
496
504
508
507
501
493
485
482
484
491
500
509
514
512
504
493
484
482
486
494
503
510
512
510
504
495
489
487
489
496
506
514
517
514
506
497
489
487
490
498
509
518
522
521
514
504
496
492
493
500
510
519
523
522
514
504
497
494
497
505
516
525
529
528
520
508
497
493
494
503
515
524
529
528
520
509
500
496
498
506
518
528
531
529
520
509
500
497
499
508
519
527
529
526
517
505
496
491
493
501
512
521
525
524
517
506
497
492
493
500
510
519
521
519
512
502
493
489
491
498
507
515
517
514
506
497
489
486
487
493
501
508
511
509
502
492
485
482
483
488
495
502
504
502
496
488
482
479
479
484
490
495
497
498
494
488
482
479
478
481
486
490
493
493
490
487
483
480
480
481
483
485
486
485
484
482
480
478
477
475
476
477
478
479
480
480
481
480
478
476
473
471
471
473
476
478
478
478
475
471
466
463
463
466
470
473
475
473
469
462
454
448
446
447
452
458
462
461
453
440
425
411
404
407
418
432
442
442
431
408
383
363
355
362
382
406
424
427
413
385
351
326
318
332
364
403
433
444
430
398
361
334
328
348
389
438
474
487
475
442
402
375
371
395
441
495
536
552
538
501
458
429
429
479
565
644
695
717
720
715
710
708
709
708
702
690
672
644
602
549
493
441
391
350
325
305
274
220
145
89
55
34
21
14
9
6
4
3
2
2
2
1
1
1
1
1
1
1
1
1
1
1
1
1
1
1
1
1
1
1
1
1
1
1
1
1
1
1
1
1
90
343
643
923
1023
1023
1023
1023
1023
1023
1023
1023
1023
1023
1023
1023
1023
1023
1023
1023
1023
1023
1023
1023
1023
1023
1023
1023
1023
1023
1023
1023
1023
1023
1023
1023
1023
1023
1023
1023
1023
1023
1023
1023
1023
1023
1023
1023
1023
1023
1023
1023
1023
1023
1023
1023
1023
740
453
277
170
105
65
41
90
498
974
1023
1023
1023
1023
1023
1023
1023
1023
1023
1023
1023
1023
1023
1023
1023
1023
1023
1023
1023
1023
1023
1023
1023
1023
1023
1023
1023
1023
1023
1023
1023
1023
1023
1023
1023
1023
1023
1023
1023
1023
1023
1023
1023
1023
1023
1023
1023
1023
1023
1023
1023
1023
1023
1023
1023
1023
1023
1023
1023
1023
1023
1023
1023
1023
1023
1023
1023
1023
1023
1023
1023
1023
1023
1023
1023
1023
1023
1023
944
878
842
820
766
684
602
511
408
285
224
228
240
236
211
177
146
108
75
46
29
18
12
8
5
4
3
2
2
2
2
1
1
1
1
1
1
1
1
1
1
1
1
1
1
1
1
1
1
1
1
1
1
1
1
1
1
1
1
1
1
1
1
1
1
1
1
1
1
1
1
1
1
1
1
1
1
1
1
1
1
1
1
1
1
1
1
1
1
1
1
1
0
1
37
83
153
247
328
401
479
574
698
860
1023
1023
1023
1023
1023
1023
1023
1023
1023
1023
1023
1023
1023
1023
1023
1023
1023
1023
1023
1023
1023
1023
1023
1023
1023
1023
1023
1023
1023
1023
1023
1023
1023
1023
1023
1023
1023
1023
1023
1023
1023
1023
1023
1023
1023
1023
1023
978
781
607
411
252
163
102
63
39
25
16
11
7
5
4
3
2
2
2
1
1
1
1
1
1
1
1
1
1
1
1
1
1
1
1
1
1
1
1
1
1
1
1
1
1
1
1
1
1
1
1
1
1
1
1
1
1
1
1
1
1
1
1
1
1
1
1
1
1
1
1
1
1
1
1
1
1
1
1
1
1
1
1
1
1
1
1
1
1
1
1
1
1
1
1
1
1
1
1
1
1
1
1
1
1
1
1
1
1
1
1
1
1
1
1
0
1
1
1
1
1
2
29
66
65
51
46
39
24
14
11
43
95
122
87
51
59
109
174
235
299
411
536
606
594
568
559
530
460
386
332
303
293
287
266
253
224
154
121
159
214
246
271
289
293
282
284
307
340
377
397
408
456
521
534
503
474
461
465
488
505
497
493
529
568
604
629
637
637
626
642
655
630
608
628
666
695
718
740
754
760
779
836
911
970
991
940
864
796
737
703
703
719
729
730
731
723
745
800
842
842
847
850
838
810
808
811
820
821
830
856
891
909
873
855
813
767
742
746
741
756
780
785
804
844
914
981
984
944
901
880
859
843
839
807
770
770
813
851
867
868
865
868
859
871
907
929
899
865
833
805
824
857
891
911
906
869
824
778
769
779
765
761
781
795
789
803
837
868
861
815
769
775
792
805
805
783
751
726
707
703
722
716
691
678
668
643
619
589
560
563
572
588
631
653
656
635
608
587
595
605
619
622
603
568
570
592
622
624
615
620
614
605
616
635
635
615
587
595
608
582
550
561
593
610
622
610
593
580
579
579
599
623
633
606
554
523
536
576
626
672
674
660
654
644
638
635
626
615
617
612
616
612
604
604
610
615
647
643
622
623
625
647
661
671
668
673
674
645
600
571
552
537
533
540
571
583
576
585
602
602
591
580
592
616
645
654
645
611
573
551
568
615
642
638
606
565
532
550
599
617
592
559
529
510
502
517
529
525
511
526
545
551
545
549
554
564
560
556
553
547
552
561
534
511
512
510
517
550
622
660
639
598
573
552
513
483
486
490
518
537
538
537
541
547
538
514
503
528
559
546
510
493
496
524
539
544
541
531
515
521
518
514
550
590
599
578
531
493
486
468
451
465
477
473
492
526
561
580
586
592
596
585
556
539
527
513
511
533
564
571
571
582
596
606
613
577
552
558
555
564
576
598
611
585
522
499
519
532
546
556
563
555
548
539
523
506
512
528
544
548
553
574
596
618
649
660
639
591
545
527
513
496
501
519
518
533
568
598
608
620
609
558
506
488
488
475
463
496
529
558
599
617
584
545
515
493
479
465
482
505
538
543
536
550
532
508
492
478
477
492
493
494
477
482
505
503
481
474
488
505
503
492
500
529
575
642
698
750
804
860
866
838
830
858
870
798
700
598
510
444
393
358
335
339
352
362
376
395
410
422
434
420
386
391
437
466
468
455
446
426
427
447
468
458
421
370
357
399
428
450
472
490
480
422
395
398
413
416
433
449
425
415
422
424
441
461
477
505
520
510
489
458
434
427
438
478
511
500
476
452
444
440
423
437
460
479
476
481
490
484
458
448
443
442
453
455
481
519
529
503
476
491
508
505
488
478
475
499
493
490
515
530
521
505
490
447
408
400
424
458
469
464
450
463
479
506
535
527
510
499
511
519
510
490
477
481
508
526
522
531
539
547
541
537
526
502
483
490
484
475
472
464
458
458
472
504
527
530
484
428
397
378
366
373
388
390
383
390
414
426
412
404
388
368
366
392
422
420
384
367
361
352
380
439
474
471
440
378
326
314
312
323
340
373
423
455
431
403
415
451
482
490
454
409
377
353
370
416
434
420
402
413
453
482
481
472
448
426
404
403
410
408
395
414
441
469
491
499
503
496
474
441
417
420
433
436
430
433
441
454
458
450
443
442
427
421
425
434
429
414
420
440
459
479
484
458
450
448
450
469
485
498
454
398
413
442
477
497
479
430
384
367
373
383
388
397
403
406
414
417
411
409
434
450
444
437
425
413
405
426
458
461
453
453
450
435
407
389
395
416
437
466
484
485
471
431
408
418
425
443
442
423
415
422
431
418
401
409
427
432
440
459
471
476
490
527
537
517
512
508
491
467
439
423
447
474
482
469
460
466
495
510
511
493
494
507
503
477
447
450
487
544
563
547
532
500
475
473
477
496
506
500
506
519
525
511
499
501
495
481
501
519
507
494
487
476
475
466
467
477
475
467
461
476
512
527
537
547
566
558
528
512
526
539
546
563
571
562
552
544
531
526
506
500
514
514
492
492
507
516
484
459
466
510
535
537
538
531
524
549
569
561
553
563
576
578
566
543
510
488
463
454
450
473
511
544
555
555
536
490
445
456
518
547
534
521
492
468
489
500
493
501
510
520
526
501
470
458
462
463
466
462
465
462
469
476
504
498
481
493
527
553
591
615
656
722
792
830
849
858
854
804
743
699
673
648
602
541
494
466
429
398
397
415
444
457
463
454
465
496
513
498
489
497
506
488
480
489
489
485
457
435
442
443
452
457
448
429
426
454
494
522
533
534
524
504
480
476
496
536
561
567
567
578
598
585
515
460
471
502
518
510
493
464
442
445
467
491
509
528
539
541
555
566
551
526
515
514
513
513
511
524
538
555
555
562
550
505
483
492
504
497
484
494
508
516
516
541
555
554
533
506
513
498
484
503
531
530
506
478
481
529
577
598
618
634
608
567
533
482
430
430
473
521
549
549
536
536
539
545
554
553
538
530
559
584
584
578
574
563
540
530
531
520
501
480
459
434
398
406
448
480
485
483
482
486
490
473
463
481
502
512
504
486
471
481
500
503
493
483
442
391
390
409
419
415
417
427
435
442
445
423
379
350
348
351
362
389
415
409
407
415
429
438
428
427
439
442
448
452
458
490
503
470
427
386
364
376
408
425
420
417
414
403
376
349
339
349
396
429
441
458
462
474
485
474
447
427
418
425
446
458
487
510
519
512
491
473
457
443
429
428
436
442
436
426
428
457
482
469
433
406
414
434
444
470
503
518
522
508
490
472
465
468
463
487
512
512
492
484
471
441
434
432
417
397
398
420
435
429
428
439
457
472
461
439
415
389
381
368
368
391
412
422
450
474
474
481
486
464
438
420
408
414
424
421
424
431
410
382
379
389
407
403
394
411
416
403
401
432
434
400
367
357
374
423
455
431
372
333
340
370
372
360
364
367
361
356
320
272
216
183
174
164
147
120
86
52
32
20
13
8
5
4
3
2
2
1
1
1
1
1
1
1
1
1
1
1
1
1
1
1
1
1
1
1
1
1
1
1
1
1
1
1
1
1
1
1
1
1
1
1
1
1
1
1
22
103
209
298
355
390
431
486
534
563
623
701
747
759
764
759
738
710
712
770
829
880
925
942
917
896
911
907
914
917
901
886
901
936
970
978
984
999
1016
1023
1023
1023
1023
1023
1023
1023
1023
1023
1023
1023
1023
1023
1023
1023
1023
1023
1023
1015
1021
1009
1010
1010
974
945
957
1003
1023
1023
1023
1023
1023
1023
1023
1023
1023
1023
1023
1023
1023
1002
942
886
815
783
762
751
755
760
737
704
688
697
699
691
704
733
750
729
713
686
646
620
602
604
602
610
612
600
625
629
606
590
561
561
595
631
656
654
645
621
596
588
604
619
603
597
615
620
615
615
626
636
649
657
631
609
622
630
640
641
601
551
509
500
527
564
576
590
604
591
595
603
593
579
552
533
543
573
591
586
573
566
580
587
590
571
543
522
506
489
484
500
524
572
590
565
526
486
479
497
523
519
493
464
488
520
520
510
512
492
472
466
480
505
544
564
566
558
535
521
498
467
440
415
413
444
468
484
497
478
454
454
451
452
434
424
422
427
413
399
429
461
449
417
400
414
436
443
447
446
425
396
372
364
365
391
395
377
361
352
329
318
314
316
336
364
396
415
413
412
411
398
400
419
416
398
397
424
449
471
485
474
441
420
425
436
426
430
449
445
441
475
506
500
493
489
488
505
540
550
538
536
546
575
602
635
662
662
617
574
553
545
526
504
499
502
511
516
534
551
568
569
566
584
605
595
570
578
590
592
571
576
600
628
650
639
612
596
570
552
550
551
572
589
592
598
591
559
528
527
539
573
604
614
610
620
648
653
620
593
607
626
622
608
588
586
593
609
630
645
653
645
600
567
546
538
547
552
555
576
588
587
596
611
628
630
624
611
598
596
605
609
611
608
622
615
619
650
680
695
682
646
606
580
582
609
618
595
575
594
614
603
584
589
600
595
586
596
603
599
603
605
582
565
575
596
603
580
561
554
578
651
702
713
671
608
570
529
504
501
524
543
529
540
536
521
496
483
497
512
511
511
523
538
540
545
555
549
555
547
535
541
541
529
524
525
518
498
495
511
529
527
535
546
547
564
573
568
552
536
544
551
563
589
601
581
588
594
585
582
573
553
564
617
667
683
653
601
545
500
485
504
531
555
591
621
625
640
641
595
570
564
572
595
620
634
653
657
668
689
674
633
586
573
592
610
627
635
629
611
605
594
575
573
576
571
566
567
578
592
593
572
553
548
558
583
626
655
668
672
670
670
657
627
608
589
578
576
571
572
574
567
570
592
627
650
653
648
643
627
621
616
612
619
628
615
608
612
614
630
625
603
587
560
525
513
520
543
594
637
660
682
711
729
757
818
871
922
954
967
973
946
913
865
819
779
726
651
562
492
451
437
450
446
416
411
438
481
493
481
467
483
503
492
483
496
494
489
492
494
497
509
515
503
508
527
548
559
546
509
487
501
506
524
535
546
539
507
490
501
515
521
519
516
523
542
567
580
598
623
622
603
600
585
572
564
563
544
524
522
528
561
593
610
614
614
601
591
585
591
610
622
622
606
604
605
600
621
657
675
651
640
642
625
609
604
589
577
576
581
586
594
597
597
610
617
614
612
621
631
644
654
652
649
647
642
634
644
649
621
591
576
594
606
596
599
613
619
624
640
649
654
649
634
624
630
645
651
633
608
589
584
594
593
567
554
573
588
560
539
532
522
520
534
558
553
527
518
522
514
525
550
570
570
531
465
431
441
480
498
503
517
516
518
522
534
524
486
453
441
444
464
464
468
484
484
481
475
466
471
486
486
481
508
516
505
518
543
521
471
453
478
498
492
491
502
523
551
564
553
540
514
504
517
525
499
478
484
497
495
496
507
540
561
547
510
499
507
526
535
532
513
503
483
480
504
534
532
512
489
471
487
509
521
537
559
565
572
581
571
530
500
487
466
447
464
501
518
515
500
496
492
485
498
505
488
491
514
543
556
553
544
527
490
466
461
467
490
500
506
506
493
479
492
514
516
515
505
499
502
505
505
504
518
535
539
535
507
499
491
459
447
440
462
482
493
524
527
519
511
519
538
536
511
478
457
451
472
495
491
488
492
493
496
488
475
477
502
503
498
504
496
492
513
538
534
525
521
528
533
531
539
535
535
562
572
547
523
524
513
485
477
484
495
508
528
537
528
513
495
480
480
527
585
583
566
568
562
541
501
473
456
462
479
492
509
488
467
484
499
488
483
491
502
527
521
491
474
484
508
540
558
559
566
542
527
521
531
532
521
504
490
474
465
476
489
481
468
467
491
506
524
555
546
524
522
515
492
491
502
502
501
523
516
524
534
534
506
489
500
507
500
482
477
472
485
500
494
496
498
498
512
522
511
508
507
506
525
530
529
525
530
546
549
531
513
511
528
540
543
549
558
552
583
595
572
541
543
539
515
496
493
509
534
533
530
499
465
470
475
472
460
434
415
412
451
487
508
530
539
536
514
487
487
501
520
555
597
647
729
785
811
839
877
897
863
805
749
671
580
505
447
397
360
333
318
320
358
391
405
404
406
417
427
432
423
404
399
414
426
431
435
452
446
432
419
416
431
447
429
398
377
380
403
428
448
458
457
457
454
456
444
423
421
421
450
478
478
476
466
443
441
449
464
482
494
494
466
462
471
488
467
425
417
442
470
474
449
451
481
491
484
475
469
487
505
517
513
502
486
484
479
466
467
469
489
501
516
524
531
555
564
547
510
495
479
466
473
484
501
508
506
528
568
580
557
521
509
528
551
558
571
582
586
569
556
557
586
599
594
568
544
551
570
590
605
592
552
552
557
550
549
544
539
544
549
528
507
518
541
541
537
518
494
481
468
452
446
457
467
480
485
496
501
490
447
403
390
384
409
429
440
440
421
416
414
402
385
394
404
406
394
382
379
391
394
404
423
424
410
404
425
463
485
476
447
413
390
394
410
424
437
446
463
484
495
478
466
464
453
438
429
420
429
443
479
499
514
524
520
523
519
514
505
484
470
496
541
555
537
514
510
494
471
454
450
461
469
487
490
485
501
514
488
472
471
486
504
508
545
560
526
474
448
441
438
446
466
477
493
506
499
473
455
436
426
459
499
516
513
504
492
481
487
495
488
475
472
464
472
463
461
470
477
485
483
468
458
474
488
506
504
495
464
445
439
449
478
516
534
520
498
483
469
483
497
508
527
527
522
506
490
494
480
482
518
530
514
502
488
480
465
466
487
496
504
519
527
533
525
518
521
509
492
469
457
463
473
461
473
495
507
529
556
572
569
549
520
505
506
507
502
499
494
500
503
498
488
486
491
491
502
517
524
525
522
514
480
456
482
507
515
512
509
520
535
534
532
520
507
513
519
523
524
495
469
469
480
476
474
491
497
468
454
472
489
483
489
518
546
556
544
528
518
508
498
502
503
489
484
499
524
514
498
475
462
479
522
558
550
506
482
485
489
494
497
476
467
476
470
461
469
484
504
512
506
494
492
517
523
499
491
503
516
514
518
527
527
519
509
509
511
505
508
497
500
517
537
545
534
509
499
486
479
476
477
479
473
471
484
497
522
543
539
512
516
532
530
515
521
546
570
571
550
536
525
511
498
506
527
542
545
533
523
498
470
458
452
467
481
481
483
492
487
471
465
476
478
477
505
535
542
525
483
444
434
443
447
481
544
585
609
659
720
770
817
849
854
831
800
771
740
689
612
560
539
510
480
459
450
446
447
428
402
379
358
355
352
367
401
434
437
428
437
459
475
492
503
518
500
465
434
409
403
409
427
441
453
447
455
474
483
475
467
491
492
472
449
442
450
433
420
427
439
453
465
469
478
490
508
529
517
483
460
449
442
452
478
486
479
489
506
534
578
605
594
544
506
477
462
463
470
482
491
491
513
521
502
490
499
517
556
573
564
543
529
527
534
523
492
475
495
522
521
547
591
631
650
619
579
559
546
544
535
544
571
583
595
577
547
539
550
548
559
584
595
596
589
582
571
572
557
530
532
566
568
546
563
589
625
649
639
603
582
576
548
513
495
486
493
493
491
492
454
440
464
470
456
432
433
432
431
429
424
430
445
441
420
404
413
434
438
429
416
389
366
380
402
414
438
448
448
442
447
456
448
463
494
505
462
402
389
417
423
414
412
419
455
489
484
458
456
468
476
508
511
478
432
403
409
429
429
430
443
468
469
454
476
497
484
470
473
484
497
495
504
492
473
459
475
484
479
479
470
448
450
467
496
502
491
490
503
513
508
507
507
505
497
483
468
470
495
498
476
475
500
522
540
542
537
506
475
464
464
463
474
477
477
478
483
511
558
551
548
538
523
506
472
438
445
469
491
511
530
538
528
503
495
505
511
501
499
521
530
524
500
493
488
515
515
495
480
458
437
431
466
502
540
584
591
566
530
499
483
491
528
538
503
471
442
437
451
474
501
509
508
494
481
483
494
493
494
505
521
520
497
469
452
440
445
496
566
611
614
596
578
562
542
519
492
484
476
449
452
484
532
556
539
495
489
506
520
508
487
461
463
478
486
490
486
489
487
484
515
528
508
501
511
520
513
502
514
520
511
505
513
522
523
502
495
500
500
503
492
482
484
495
506
488
462
472
495
507
508
480
469
473
474
482
491
488
491
502
513
523
514
508
521
531
526
519
513
494
483
496
522
521
499
490
509
522
527
528
530
530
516
520
542
562
558
518
483
464
462
459
474
481
467
468
480
491
496
497
521
574
614
604
546
489
475
489
487
474
491
522
524
518
534
557
540
519
499
496
521
556
580
569
539
509
481
473
491
521
512
487
486
512
516
484
469
457
433
457
527
561
571
547
504
473
450
432
443
469
486
493
496
484
472
471
486
493
485
494
510
525
544
579
625
666
705
750
786
824
856
855
814
768
730
667
604
558
528
490
463
428
393
356
344
355
370
383
416
448
450
452
458
457
452
452
437
427
428
432
450
466
464
463
437
423
432
431
420
420
428
445
465
467
458
459
452
462
478
494
480
452
435
425
408
416
470
522
549
544
528
512
507
480
442
432
455
468
473
484
498
501
476
459
479
483
470
487
509
509
495
504
528
524
517
532
554
563
548
541
557
556
547
547
557
562
548
537
531
525
526
550
578
573
572
565
557
552
548
555
577
588
591
585
589
602
596
568
572
594
611
617
609
602
591
589
597
605
621
613
597
569
564
554
528
519
540
573
611
637
603
575
580
557
510
474
478
512
536
554
547
519
495
494
493
488
473
461
465
469
465
462
459
450
440
423
420
439
432
431
424
415
388
387
385
379
392
407
392
364
352
355
382
397
411
411
402
380
370
375
390
414
426
427
420
401
414
436
417
392
398
408
425
476
522
525
488
450
424
416
411
408
403
414
426
412
404
439
470
463
443
451
482
515
521
486
453
455
460
474
488
496
496
521
519
486
437
424
423
428
449
455
460
484
508
485
452
445
450
456
464
462
459
444
427
419
435
462
474
483
503
507
484
454
448
444
435
433
467
488
488
481
491
507
511
492
476
451
443
453
484
501
496
488
480
466
458
464
470
483
489
491
489
518
552
557
525
474
437
444
483
492
484
493
485
478
465
456
473
501
513
494
472
448
434
454
494
501
493
495
515
523
531
541
550
555
540
517
504
491
491
510
519
522
495
470
487
518
532
510
494
500
507
505
496
474
476
507
526
515
488
492
508
507
491
479
482
508
523
526
532
522
499
470
462
475
503
526
550
549
534
507
483
476
484
478
460
467
489
522
545
551
534
513
500
506
526
527
502
494
502
521
527
536
555
571
554
519
513
508
489
489
472
453
460
489
518
527
523
525
525
530
535
541
512
481
474
482
500
518
521
523
522
543
560
528
483
501
547
588
592
557
507
501
520
522
513
493
482
494
519
527
511
501
494
494
507
521
536
531
508
510
507
506
512
520
528
540
549
539
532
535
546
552
551
538
535
519
513
547
576
578
588
597
571
561
567
559
547
520
480
456
477
510
548
574
593
582
554
552
553
538
543
552
549
530
501
488
509
517
509
503
508
518
517
522
517
499
499
534
574
597
598
577
519
464
446
459
467
476
482
519
580
654
734
806
854
881
906
923
918
872
802
718
657
598
529
490
463
439
428
423
426
440
448
440
438
432
406
403
410
440
485
513
519
529
528
503
467
439
434
439
442
441
445
453
473
492
517
552
575
573
538
501
486
494
503
489
480
498
515
527
519
518
516
500
501
513
524
538
518
500
502
516
511
495
487
494
510
500
493
486
508
540
562
567
583
591
570
531
498
491
515
543
543
526
530
548
564
568
567
585
591
585
559
551
543
547
570
599
622
621
606
581
571
577
585
599
607
594
579
591
583
571
570
583
602
609
616
620
623
622
611
571
532
522
566
614
630
647
666
659
636
608
588
589
594
588
584
578
576
580
598
614
600
590
592
575
533
512
502
498
495
496
512
515
502
495
482
462
449
439
426
403
406
401
416
436
431
430
435
438
453
476
477
476
479
474
475
457
436
442
454
449
439
436
444
462
473
461
446
453
465
465
463
456
443
432
443
450
454
438
406
388
415
447
472
489
494
493
494
494
496
482
467
467
485
506
532
541
525
521
514
498
502
533
549
519
478
472
506
527
527
515
496
489
482
484
507
526
519
508
498
486
481
478
479
484
483
474
472
494
508
507
485
469
477
513
518
506
510
530
521
506
496
481
480
488
510
533
537
534
523
502
474
466
477
498
504
513
525
526
522
511
512
503
494
494
529
529
502
468
464
481
494
497
513
539
556
540
494
459
455
470
469
475
500
534
566
595
596
562
522
506
491
484
498
526
546
547
541
540
535
518
489
489
513
528
562
588
587
590
584
565
540
509
488
476
475
506
548
562
554
544
535
531
523
527
536
548
554
532
505
494
505
524
542
548
532
524
512
507
513
516
521
529
529
520
534
575
580
563
545
512
486
488
501
518
525
515
503
505
517
525
532
540
540
546
555
544
538
532
523
523
517
503
512
523
535
555
572
579
570
542
526
515
496
460
454
459
473
499
510
495
508
543
549
539
518
496
490
503
531
540
536
513
499
502
513
538
542
513
493
479
473
472
491
520
538
534
512
500
514
509
496
485
486
495
499
504
493
500
491
497
525
547
533
510
512
524
524
527
522
521
530
533
518
527
544
530
514
499
521
537
548
556
554
540
532
518
511
536
559
568
565
567
570
561
535
516
517
526
550
560
540
521
523
533
532
530
517
492
501
513
492
475
490
500
478
459
464
489
513
530
532
522
498
488
507
525
558
608
663
717
751
796
841
878
880
840
777
716
671
621
573
526
484
460
464
450
437
438
437
431
423
437
453
451
468
488
459
434
426
416
418
427
441
448
442
440
448
448
453
439
429
446
479
490
500
506
499
491
480
461
461
474
480
492
496
494
502
473
433
440
473
522
555
558
560
542
502
452
446
454
457
461
479
503
510
503
518
541
542
556
554
511
491
503
523
534
528
514
512
540
558
558
547
517
498
494
506
555
581
558
531
532
548
558
564
569
571
571
554
563
587
590
576
556
553
566
589
609
611
601
590
588
585
602
626
615
598
578
553
556
588
609
608
579
566
588
603
598
593
587
575
564
568
582
585
587
607
628
612
588
573
555
533
513
478
460
466
499
500
486
468
446
437
435
420
403
403
410
407
413
424
428
410
394
390
403
421
425
418
426
446
458
454
439
426
419
413
410
406
403
405
436
440
439
427
441
478
486
469
439
421
416
404
402
395
407
413
427
434
437
443
435
445
455
435
423
439
470
486
483
475
472
461
449
449
436
445
464
480
471
458
475
519
550
554
524
477
439
417
419
433
434
431
432
434
441
461
457
441
442
451
467
503
532
539
529
490
459
453
460
463
458
458
475
513
509
473
463
444
429
425
432
456
512
554
546
513
483
467
463
457
441
429
441
445
445
446
460
459
452
453
466
483
502
515
510
494
489
487
473
474
480
469
465
457
457
442
429
429
439
466
526
567
567
526
502
492
475
461
471
473
460
471
500
511
488
469
468
463
471
495
497
476
487
497
507
521
513
481
468
465
461
443
448
466
468
480
486
480
486
500
505
494
473
465
475
479
490
497
494
508
523
534
535
517
497
497
515
506
488
486
479
486
506
504
496
492
485
468
449
450
480
514
523
526
537
543
541
520
491
475
458
463
484
508
530
528
521
523
517
499
484
493
530
555
556
535
501
470
462
478
490
507
543
566
560
556
558
525
488
476
480
490
536
586
565
522
490
486
518
545
538
489
484
509
505
491
486
512
552
560
529
508
503
514
514
512
485
469
485
504
519
540
532
503
497
483
466
487
531
559
554
538
521
521
532
565
579
541
516
499
503
520
534
540
530
518
524
544
549
517
499
528
570
573
575
564
550
529
507
521
537
550
558
553
549
551
536
520
523
532
536
533
549
567
552
523
483
454
442
427
436
451
463
481
499
515
509
494
490
490
502
518
526
548
593
652
698
738
796
846
862
873
867
818
765
733
692
647
594
538
494
451
398
370
368
370
377
399
433
453
459
461
477
491
477
439
432
437
426
438
446
458
458
458
456
469
487
484
457
455
482
506
514
513
489
464
446
453
464
456
472
506
510
504
498
495
499
494
497
504
493
486
505
511
507
501
518
527
517
507
509
520
495
478
481
488
475
472
484
479
499
519
536
553
554
543
537
533
528
524
534
552
539
516
504
522
551
557
558
574
583
566
534
535
570
584
563
548
543
545
557
559
546
510
479
482
500
533
587
627
647
654
660
632
614
617
620
598
563
546
558
583
593
587
579
573
587
602
593
556
525
520
519
515
499
502
501
508
514
523
517
503
501
514
528
508
485
480
481
478
454
437
430
424
439
461
458
447
441
429
407
384
380
403
421
423
414
398
379
372
379
385
392
403
424
426
408
406
418
435
463
476
458
409
404
424
455
466
442
428
446
447
473
508
532
530
486
446
436
431
435
446
446
437
437
451
466
492
506
487
470
481
484
479
469
469
475
487
494
509
504
492
489
526
568
572
539
483
434
418
444
485
539
564
554
533
522
503
469
449
448
437
448
455
451
450
486
537
543
510
501
516
515
509
509
508
500
490
493
503
493
495
512
526
535
548
529
510
512
509
511
499
472
472
495
513
513
512
488
480
481
486
497
512
512
483
455
443
460
485
507
510
514
520
513
500
498
488
490
510
528
533
509
513
545
559
560
529
510
514
509
493
465
456
454
452
462
482
507
501
477
457
454
466
483
472
459
467
506
525
532
544
544
548
519
480
481
504
513
500
508
524
545
551
539
513
487
470
474
486
489
467
446
468
492
509
514
507
504
521
529
525
523
524
527
521
525
532
512
489
498
518
515
507
503
484
490
527
558
569
543
491
464
439
432
446
462
477
471
491
518
516
506
491
485
491
503
508
508
524
537
528
516
506
509
531
545
532
522
512
507
530
567
603
585
524
470
433
428
446
474
498
508
510
513
505
498
514
523
511
511
524
523
521
530
525
540
553
555
540
521
527
537
545
538
559
584
581
555
549
548
545
551
550
535
515
500
505
519
499
477
487
510
515
520
534
507
465
447
460
480
502
538
558
573
560
544
547
549
527
518
529
552
541
517
498
489
484
466
455
461
489
516
554
602
592
558
541
570
622
670
724
778
800
823
841
835
801
749
703
652
583
527
493
471
437
406
371
334
332
361
397
427
428
404
385
398
440
478
491
506
509
488
469
439
431
440
440
415
419
446
474
483
479
464
450
471
499
491
471
479
506
518
501
486
478
487
488
476
463
458
454
445
447
472
493
517
518
524
550
565
524
487
481
479
462
405
380
428
487
510
512
520
511
521
531
538
547
584
601
574
558
551
527
501
493
502
537
562
542
516
519
531
551
568
570
572
585
586
556
530
516
505
502
493
497
542
579
596
608
616
601
591
596
606
597
583
587
598
595
576
558
564
581
597
606
593
592
595
594
607
594
570
538
511
510
525
538
541
550
563
573
553
524
508
506
503
491
469
466
473
475
461
453
468
454
438
419
389
381
399
421
435
433
423
413
420
431
418
425
407
378
393
410
409
421
433
434
427
417
381
372
380
374
398
425
429
436
449
451
432
419
412
444
454
442
436
440
446
440
446
440
458
479
472
452
452
477
500
493
487
479
470
460
457
459
461
472
463
467
489
503
491
462
459
465
460
459
461
475
495
510
523
540
531
507
500
496
483
462
454
455
463
473
496
524
530
537
531
519
493
461
462
466
466
472
478
483
495
510
504
490
484
501
510
487
486
501
514
517
529
520
487
462
451
458
483
482
468
461
489
515
534
556
574
577
561
530
506
489
485
495
511
520
500
488
500
514
516
527
554
545
504
464
428
427
449
468
486
507
518
514
509
500
472
476
489
512
577
629
632
593
556
510
473
453
454
468
489
500
501
498
516
528
518
501
478
483
500
507
507
500
508
514
517
515
507
502
503
514
523
498
471
476
492
513
526
499
500
542
584
585
556
527
511
513
515
528
547
524
506
501
495
502
518
518
509
499
487
474
472
480
505
526
530
535
522
514
516
520
521
507
491
490
515
553
575
570
538
490
471
489
539
551
548
539
532
559
564
538
505
490
491
487
481
476
486
500
495
484
475
488
520
541
537
533
516
522
545
550
569
599
607
586
545
513
498
496
499
519
529
528
523
536
542
540
556
565
540
520
533
558
575
554
534
514
492
499
530
542
543
545
562
562
527
498
501
504
500
496
495
503
504
514
494
474
493
520
516
509
507
501
517
522
515
502
500
496
516
545
570
598
611
653
725
788
839
872
888
894
884
838
774
700
621
557
493
447
414
386
381
396
433
452
458
464
440
410
398
396
406
450
471
468
481
480
467
451
461
466
452
438
461
490
506
507
489
472
464
460
465
476
476
489
469
443
426
433
453
485
498
496
488
490
507
518
509
490
487
502
521
531
522
511
521
526
538
555
563
539
501
474
475
474
474
485
500
516
532
550
564
555
536
523
537
563
562
540
510
505
523
545
539
520
503
510
543
564
541
525
544
578
592
578
574
582
574
571
571
570
561
557
563
579
604
620
610
597
606
625
638
625
605
617
632
640
632
620
603
572
557
560
572
567
538
536
551
559
568
592
618
610
583
554
519
508
510
501
497
510
522
515
509
511
485
444
428
441
436
415
415
428
421
422
434
442
443
450
462
439
413
409
402
404
420
424
425
416
407
416
421
421
426
415
406
422
431
417
411
416
418
424
434
442
447
443
432
435
445
456
468
463
437
420
444
485
507
488
459
442
429
440
466
481
494
492
480
473
480
490
499
507
522
526
502
496
484
473
476
481
491
498
498
499
486
478
496
509
511
509
530
562
565
535
502
488
473
465
465
456
464
489
496
488
462
457
478
482
486
500
510
518
518
509
495
483
485
483
481
503
522
522
514
499
483
476
479
499
497
496
492
495
473
439
436
461
476
492
508
520
532
535
524
515
498
480
470
461
476
503
501
487
476
475
492
517
550
559
548
538
497
473
453
455
496
530
527
514
506
502
497
494
476
448
429
454
479
483
487
489
494
490
512
541
557
551
529
499
480
485
478
483
506
533
543
535
522
502
482
497
521
522
538
553
541
526
533
527
499
473
463
457
464
496
501
519
541
545
542
529
502
489
494
506
509
516
527
543
543
529
526
527
521
500
491
496
492
497
492
485
493
520
534
522
499
486
499
512
518
527
525
517
508
510
528
545
552
523
511
515
504
492
498
497
491
487
514
528
544
549
526
531
540
523
509
530
566
571
560
534
519
508
500
509
522
532
527
523
526
541
529
505
486
484
496
509
513
512
520
549
577
582
555
526
508
506
535
536
523
522
530
550
569
572
549
536
530
522
529
538
536
523
517
523
531
547
545
529
505
500
495
492
484
486
487
482
481
489
498
509
511
514
530
552
559
545
541
580
659
748
796
819
844
843
828
803
775
756
719
658
591
538
488
446
406
380
364
367
393
421
441
438
419
427
447
459
458
448
447
461
458
455
455
464
485
489
484
475
472
455
440
443
473
500
495
491
485
478
478
473
471
482
481
488
492
470
467
480
487
485
490
488
507
531
553
545
537
529
525
522
529
542
543
513
500
497
477
466
463
480
497
493
508
524
539
539
534
526
528
530
521
527
544
547
546
535
547
571
580
563
543
555
565
556
552
560
564
566
562
553
584
617
605
598
596
594
587
573
560
552
564
561
538
539
552
559
583
616
639
637
628
617
606
608
623
629
627
629
617
591
565
541
526
514
515
517
542
571
578
579
572
560
550
536
524
507
482
476
479
490
481
463
457
457
435
400
377
391
427
456
476
477
459
421
408
413
405
404
415
429
450
446
435
435
443
435
397
381
394
426
455
470
467
452
450
454
449
438
428
418
436
460
461
458
473
467
451
454
474
496
500
474
459
479
500
501
492
479
475
475
496
509
496
496
493
465
448
488
517
508
485
484
491
478
462
463
477
500
520
504
489
485
494
510
513
513
519
499
478
483
503
517
527
514
501
480
465
480
504
521
527
526
538
537
522
511
498
489
488
496
502
504
499
504
506
527
548
523
496
510
535
546
532
516
510
503
498
506
505
515
508
497
508
513
514
521
522
515
496
505
512
508
514
531
525
511
532
550
557
546
509
477
468
472
488
515
548
566
561
542
525
497
509
503
490
492
513
538
553
532
510
509
519
530
533
522
517
521
527
531
538
542
539
529
539
539
540
547
548
546
533
511
490
486
495
517
545
566
550
511
480
478
505
520
528
538
540
539
540
535
534
527
526
531
521
504
510
523
544
558
574
576
553
527
508
502
521
521
516
527
534
533
533
521
515
528
532
504
489
513
548
569
570
566
545
512
503
512
527
534
544
555
554
532
481
467
493
496
486
493
519
532
541
546
557
562
560
545
516
494
493
505
533
540
524
507
481
448
451
472
499
530
557
579
586
574
554
538
528
534
528
509
497
490
486
476
472
488
525
546
566
588
595
581
551
538
532
532
538
536
512
503
515
521
525
531
541
562
566
554
542
548
544
529
522
520
523
516
519
534
527
507
495
484
481
488
502
514
528
539
542
528
495
478
494
519
533
543
537
506
492
483
486
484
486
512
559
619
676
726
786
831
836
835
822
799
765
742
691
638
593
554
515
472
439
420
394
362
367
406
437
442
436
431
437
444
457
468
482
479
458
441
439
452
467
460
445
448
452
442
424
410
410
434
455
475
489
480
462
453
460
473
496
528
510
451
440
477
498
494
502
529
529
502
468
445
441
453
481
502
495
497
504
521
526
521
524
529
522
510
514
512
505
480
456
452
476
509
544
557
548
548
557
563
558
546
541
556
559
554
549
536
516
511
516
543
571
586
586
580
572
564
582
603
593
563
549
569
576
579
588
605
611
598
594
601
607
597
594
611
621
621
620
611
604
622
640
621
591
595
621
637
641
615
576
556
556
557
541
499
474
493
537
546
530
516
510
511
509
493
461
446
463
494
521
510
480
458
445
444
440
415
403
413
432
424
420
420
415
411
416
429
430
423
424
432
447
461
456
450
450
440
427
400
383
394
411
431
457
462
461
489
526
525
475
425
421
446
474
469
452
456
446
442
438
449
468
476
482
485
479
484
486
477
460
446
456
470
477
488
501
508
508
493
494
505
496
481
484
499
514
517
507
504
510
514
510
502
482
474
469
455
453
461
480
484
473
479
486
475
483
483
489
513
527
525
520
500
475
463
461
460
470
492
505
498
495
510
515
513
501
489
492
502
483
456
442
446
468
498
517
515
499
489
498
521
518
491
483
481
474
469
485
497
498
513
517
523
529
514
491
473
473
478
480
497
530
561
558
544
535
518
501
496
498
487
479
465
468
477
493
509
494
513
544
558
551
532
526
525
512
502
477
470
497
516
506
496
487
470
451
455
468
477
488
481
483
513
531
536
527
529
529
527
516
509
508
506
517
535
537
530
515
498
500
507
487
472
451
452
472
505
522
519
513
515
494
482
500
518
540
539
528
508
493
493
497
493
494
492
491
488
491
489
492
519
529
524
509
508
515
502
498
507
518
525
506
482
488
510
518
525
515
511
521
526
515
504
500
486
489
508
510
495
487
499
506
506
516
526
527
526
529
512
501
501
494
489
506
529
521
509
506
510
516
522
520
518
519
524
527
525
523
504
480
468
479
488
495
495
498
506
537
548
533
537
557
561
549
537
539
539
525
512
523
536
541
542
542
548
568
596
599
577
547
517
516
517
510
519
537
549
549
530
520
517
511
490
487
494
491
478
476
491
501
523
544
559
561
537
505
500
501
499
501
482
444
433
469
514
541
559
587
642
712
755
786
822
853
865
858
824
767
712
658
613
556
495
455
455
470
471
467
426
403
405
412
418
434
462
475
460
425
408
414
425
438
454
478
481
457
447
454
456
464
484
488
475
456
424
414
451
503
529
516
482
464
450
448
455
453
437
433
454
480
510
517
506
491
484
486
483
488
490
479
469
476
498
503
510
516
514
525
524
516
517
528
524
517
512
509
521
541
543
519
496
502
514
533
548
541
531
530
530
517
500
502
542
582
587
583
587
577
540
505
500
507
517
549
570
584
595
594
594
591
587
580
571
573
582
576
565
562
577
592
598
620
628
604
585
578
580
590
600
597
578
566
562
565
567
551
521
500
488
505
559
593
583
568
543
522
509
491
466
438
432
426
424
446
453
435
414
423
443
454
450
437
420
401
378
370
393
418
429
424
416
382
339
349
375
400
424
442
459
469
462
435
421
432
428
427
436
436
440
446
432
429
438
446
443
440
425
404
410
413
403
411
436
444
466
481
482
472
459
443
450
464
485
486
482
496
502
506
502
471
437
446
467
484
492
471
445
449
455
460
466
475
467
452
450
455
469
469
470
511
540
539
535
535
514
490
477
473
468
455
474
514
536
522
508
492
472
464
470
482
490
492
488
502
512
509
496
512
528
513
477
463
465
481
499
498
495
495
500
473
449
468
485
497
514
525
532
547
550
543
536
532
512
484
467
481
497
503
495
487
473
476
488
504
498
494
515
540
525
512
527
531
520
519
521
527
531
521
488
459
457
476
491
500
515
527
520
520
527
505
487
480
475
465
471
498
532
557
566
561
555
550
551
520
503
507
516
525
520
499
487
494
496
510
525
534
539
531
519
515
508
516
512
501
500
502
506
504
495
486
487
483
476
496
522
540
549
564
570
548
525
527
521
522
525
504
476
458
482
496
486
481
494
513
535
538
539
537
529
522
527
526
516
503
497
492
488
497
509
525
533
533
530
513
500
492
507
537
547
538
526
515
511
514
514
526
542
556
540
503
484
487
489
499
505
510
534
543
545
545
535
527
514
502
495
502
513
523
521
524
535
542
545
531
514
510
524
537
554
566
556
550
549
536
518
522
553
561
547
528
533
565
583
564
545
530
519
503
493
484
503
553
574
569
561
547
523
506
510
518
528
520
512
506
497
488
481
477
475
476
481
494
490
485
494
520
525
503
488
497
517
528
557
593
627
678
727
779
828
871
892
860
826
782
738
689
634
574
516
455
397
363
353
347
345
358
386
408
423
422
409
416
434
454
490
499
470
449
454
444
448
462
453
435
444
455
460
464
461
464
461
457
457
482
498
497
495
495
498
485
471
490
506
506
495
483
480
505
528
511
483
471
475
483
490
474
440
432
456
495
512
530
543
556
572
552
529
531
509
478
474
506
539
533
530
536
545
560
583
590
571
531
502
483
488
501
506
524
549
553
558
574
577
574
564
556
554
554
573
586
585
583
576
571
570
571
580
605
631
653
643
608
587
582
576
570
570
579
591
600
598
599
603
599
594
592
596
586
587
592
569
549
545
556
560
552
547
548
555
565
538
517
496
467
461
465
469
456
445
441
443
459
443
408
371
363
394
425
444
443
445
438
420
412
414
419
432
425
417
416
421
428
434
427
408
403
410
414
413
427
440
432
435
450
461
455
434
426
421
421
445
443
443
455
481
483
459
429
415
426
445
460
444
435
458
481
491
496
492
478
473
478
488
497
489
487
484
476
480
479
474
476
483
496
527
556
561
533
505
504
520
526
526
533
536
532
516
502
497
495
492
486
485
502
513
526
540
542
532
518
481
444
421
420
442
480
513
531
504
489
500
514
516
497
489
497
512
529
539
522
510
514
519
516
513
527
520
503
496
513
535
537
526
520
510
491
478
483
500
503
496
490
504
538
555
576
563
515
477
467
480
486
478
474
478
481
500
525
532
544
562
565
559
540
529
519
510
480
454
450
470
503
518
524
521
525
543
545
543
536
529
530
537
537
535
519
505
504
504
515
520
504
479
466
475
487
497
503
510
513
500
489
505
524
536
543
525
498
476
472
483
527
540
532
509
492
486
488
494
510
523
530
551
565
556
545
538
526
506
495
497
478
459
456
464
479
523
549
534
510
497
496
513
520
498
479
469
464
476
501
508
498
496
499
507
511
517
503
500
499
496
522
547
547
545
545
555
551
534
502
491
478
473
472
472
485
486
505
550
561
540
518
500
490
478
472
466
463
465
482
496
506
533
545
546
567
577
544
494
484
478
469
476
494
528
548
558
559
541
509
483
485
512
547
563
562
550
526
499
483
480
479
489
478
462
472
494
515
535
543
543
545
555
563
572
560
522
496
479
468
485
501
515
532
526
493
478
480
488
503
513
500
479
464
451
452
463
480
490
504
516
539
567
610
679
734
767
793
822
847
854
855
830
782
687
598
541
507
480
455
434
406
387
391
394
391
389
396
412
439
444
424
410
419
451
479
479
463
461
479
508
512
487
459
438
438
448
460
461
469
484
501
505
498
482
485
483
481
478
469
485
535
541
515
492
494
492
477
476
496
503
495
503
495
482
476
492
498
492
498
509
521
532
534
521
510
502
518
536
536
528
525
525
525
527
529
525
524
524
527
535
541
547
535
533
557
570
560
545
545
559
567
568
557
550
553
567
597
631
629
593
572
562
543
529
548
595
633
656
650
632
621
625
630
616
608
606
580
566
577
583
577
585
592
596
588
575
572
584
599
590
580
560
520
514
527
530
551
563
548
544
546
526
501
481
479
501
500
472
451
449
449
435
423
417
417
426
431
425
425
418
411
421
436
424
413
406
406
405
396
387
394
408
424
424
413
411
418
420
438
450
442
445
453
455
456
449
442
428
415
422
432
431
442
456
457
454
462
468
463
467
491
497
473
457
455
463
472
455
438
460
483
477
452
448
445
439
466
499
505
504
507
521
547
544
539
511
484
474
489
488
475
461
465
466
467
481
501
515
505
502
493
483
465
467
479
487
467
452
460
483
507
524
522
500
482
468
464
476
499
509
501
480
473
486
515
540
535
518
500
492
487
495
524
549
532
500
488
475
461
467
482
488
508
510
502
496
491
482
460
460
477
491
498
497
497
508
512
504
481
483
513
530
538
532
515
505
492
496
503
492
470
462
474
501
518
523
542
531
510
511
518
522
516
528
516
507
512
507
502
499
510
508
506
509
493
488
512
521
495
474
496
519
512
498
493
489
506
517
507
490
494
506
526
534
542
536
526
519
522
536
550
552
546
520
489
479
488
521
541
537
530
518
511
508
509
518
510
485
449
445
475
486
504
545
570
570
563
552
538
522
506
510
500
493
500
505
499
495
492
503
526
532
534
534
541
554
560
549
539
541
548
544
521
502
507
503
477
478
487
492
495
525
537
538
527
513
518
518
517
510
493
484
485
493
503
514
527
515
507
533
561
556
541
529
518
508
510
534
568
582
560
533
527
537
540
520
495
482
489
509
531
534
537
539
533
534
538
543
562
561
550
541
523
520
508
504
513
514
514
512
518
529
536
532
535
540
551
552
541
521
499
482
483
492
500
513
519
526
517
492
478
459
463
493
519
512
477
463
466
462
446
450
488
551
603
654
689
721
759
810
833
835
820
785
755
712
656
600
546
497
451
413
383
356
364
373
362
372
387
421
458
480
489
493
487
475
467
452
449
455
444
425
412
410
426
455
469
475
470
448
451
467
484
490
484
480
480
475
470
465
461
466
472
478
483
480
468
474
496
505
507
519
507
496
513
517
517
504
485
462
460
480
500
510
516
516
512
512
529
527
512
499
486
487
519
542
553
536
524
516
526
528
532
552
562
536
499
516
542
555
549
514
505
518
534
556
570
575
583
602
588
563
561
555
550
560
577
592
607
623
624
603
582
589
603
605
614
616
615
632
642
632
612
580
554
556
558
586
606
604
574
549
548
565
561
539
520
508
502
516
539
543
529
503
493
496
496
494
478
460
439
425
415
427
448
459
477
485
474
468
463
434
418
420
432
441
426
432
442
439
423
404
398
402
407
441
478
499
488
449
407
389
408
424
425
422
409
419
457
471
450
437
458
483
492
482
472
465
454
461
468
466
466
476
480
471
478
496
501
484
469
485
498
498
492
477
463
472
494
501
485
474
469
475
479
469
460
457
477
504
519
526
523
513
502
496
493
494
491
487
492
489
496
518
539
546
545
543
548
545
523
493
473
469
443
435
458
461
461
490
502
493
479
476
477
487
493
500
506
508
514
532
537
515
485
477
486
478
486
510
522
538
538
526
527
523
519
508
500
486
480
505
530
533
517
496
490
494
490
470
465
473
489
504
491
475
476
491
510
526
530
534
545
556
549
522
498
482
498
522
525
510
507
520
544
545
521
486
478
481
488
508
521
527
537
519
500
495
496
514
517
507
506
513
496
479
482
514
535
551
548
518
502
495
504
528
532
525
514
489
485
486
492
504
510
533
549
537
511
492
503
509
508
508
502
491
497
505
497
496
519
537
541
557
554
524
494
473
484
501
492
488
492
486
499
519
539
559
569
574
562
532
515
499
501
510
508
493
487
490
490
496
513
548
569
552
523
503
482
475
499
517
519
524
532
536
546
541
518
516
530
540
541
525
533
541
532
540
550
534
519
520
510
503
505
501
505
510
518
535
551
552
559
565
550
524
523
536
503
494
503
507
510
522
517
524
560
569
563
564
558
536
505
514
526
522
527
525
512
520
536
551
552
549
554
542
505
464
462
500
541
547
531
519
513
503
485
487
498
495
482
473
472
500
544
541
511
525
574
607
638
656
675
720
764
789
830
870
874
844
767
674
615
572
517
466
440
422
416
412
400
394
386
394
416
442
461
478
489
496
490
472
463
450
452
460
453
450
463
468
466
456
454
457
457
459
457
464
455
438
446
464
462
459
466
463
474
480
478
467
479
494
515
535
507
487
472
457
463
490
511
506
501
501
486
481
497
504
507
501
512
526
544
548
536
512
486
498
522
537
545
534
533
520
513
524
524
516
518
521
528
525
541
544
544
547
553
557
546
545
556
565
553
541
543
557
570
566
586
600
610
605
589
582
587
597
605
610
607
601
611
627
636
634
622
601
585
582
567
551
556
571
576
589
596
583
569
567
577
584
557
536
532
538
511
500
511
520
520
514
506
472
454
459
487
509
504
488
475
452
426
415
414
408
415
434
435
424
423
438
436
424
421
425
416
414
427
433
439
432
411
417
438
444
435
438
439
437
434
435
441
462
470
462
449
447
464
482
479
450
411
384
379
390
421
468
505
518
525
509
493
496
490
491
498
493
490
490
472
444
429
450
485
506
510
519
533
523
517
501
480
486
491
488
490
496
499
486
460
455
492
522
515
504
493
494
499
501
504
495
487
475
480
494
494
484
477
493
484
467
467
493
516
520
524
489
483
502
515
532
541
520
488
486
482
472
458
485
517
518
532
541
517
486
461
452
451
444
462
487
503
496
491
495
514
537
552
525
488
478
475
468
473
498
526
516
501
511
495
482
492
477
463
467
481
499
516
523
508
485
482
491
501
507
526
532
525
503
484
498
517
500
485
488
512
524
524
539
558
561
550
547
534
515
513
513
509
497
480
455
451
476
501
515
533
545
540
532
510
486
465
462
467
488
516
521
490
469
494
511
505
514
519
517
530
529
509
501
491
493
490
484
482
494
518
520
509
507
521
528
507
497
512
513
487
465
465
487
505
500
507
509
510
517
512
496
498
486
481
505
559
561
540
519
503
488
474
465
471
485
502
517
535
528
509
493
486
504
525
542
537
527
527
534
540
531
507
469
464
484
499
501
509
520
521
513
502
494
514
539
545
528
502
501
515
529
527
521
508
483
478
476
470
460
473
503
552
571
554
531
528
519
500
508
523
526
527
530
544
556
561
539
529
551
560
547
531
520
519
523
526
534
550
552
549
531
518
525
547
546
520
512
510
509
520
535
532
517
499
482
495
513
534
542
527
513
497
485
501
524
534
519
513
511
505
500
501
513
544
592
656
704
745
778
811
831
836
815
780
750
710
646
576
530
500
483
444
411
372
348
351
378
408
440
467
463
446
458
482
478
467
482
490
473
453
445
450
456
460
473
483
473
465
463
460
474
481
472
473
488
486
494
504
495
490
499
493
481
487
503
505
500
490
481
480
486
498
490
481
480
464
450
457
480
500
517
526
515
490
491
499
509
529
529
535
542
547
554
574
588
560
538
519
503
497
509
513
519
532
543
549
557
561
542
519
515
529
552
563
578
598
607
602
578
546
534
531
530
540
542
544
537
534
557
588
604
616
617
609
600
596
596
597
613
608
607
616
603
579
580
588
571
554
556
567
577
582
572
559
563
556
543
520
511
537
557
542
511
467
423
421
448
460
449
439
443
453
462
456
463
483
483
453
410
385
383
384
390
403
420
436
424
416
409
397
412
436
435
431
436
433
434
441
443
431
419
429
449
455
444
432
423
428
446
455
466
487
491
475
462
442
439
456
476
488
486
476
457
458
458
444
445
470
491
508
526
522
502
496
505
510
483
460
460
460
466
468
478
491
512
511
495
498
508
509
487
467
477
495
513
517
503
487
486
481
479
476
488
502
503
505
503
502
503
507
515
525
518
499
474
467
476
514
549
554
551
527
502
502
495
489
495
496
494
497
488
490
489
477
476
479
481
493
507
526
533
530
537
532
509
489
483
509
523
507
501
491
475
471
476
480
477
465
492
532
547
552
543
526
526
516
505
506
500
504
519
513
502
485
488
500
493
489
492
500
511
523
506
502
525
542
536
521
508
496
484
486
509
521
516
520
516
510
506
522
536
536
526
509
488
485
522
550
551
529
510
509
496
492
490
504
526
544
543
522
508
514
539
542
517
484
469
481
505
522
524
523
530
532
534
526
507
490
516
547
546
528
512
510
513
515
521
520
513
511
511
504
482
484
502
537
550
538
529
536
515
498
491
492
502
525
530
540
564
580
575
552
551
567
537
504
487
472
471
477
484
513
536
540
530
529
533
520
505
506
505
525
543
540
529
525
523
523
533
536
530
535
543
537
532
524
529
538
546
551
532
503
494
513
528
519
506
498
506
521
526
521
518
511
513
513
521
525
526
512
491
486
494
513
534
541
547
551
549
558
563
556
549
534
503
478
490
524
541
548
548
554
533
520
518
526
541
547
542
537
545
534
515
517
516
512
514
513
504
496
504
507
515
511
495
493
504
504
505
505
491
495
502
520
538
530
517
512
546
603
654
696
736
778
813
832
829
811
774
727
683
643
598
563
530
475
432
402
389
400
410
424
447
457
459
458
448
444
461
460
451
446
451
443
434
428
416
424
449
467
469
458
477
489
483
483
495
503
486
456
447
447
460
474
485
495
478
451
463
492
504
494
494
511
533
541
525
501
488
490
489
493
496
490
494
505
500
492
488
493
499
506
518
532
526
514
507
504
514
533
551
559
541
517
509
514
516
530
543
536
532
532
538
542
528
494
490
518
536
535
552
569
569
585
599
607
599
570
570
585
595
596
592
596
597
603
607
601
590
594
606
593
576
587
610
626
628
616
603
583
567
552
538
535
531
535
548
555
551
552
548
542
536
515
502
538
559
520
478
460
465
466
466
477
485
492
484
471
462
451
435
447
448
428
406
407
417
430
439
430
412
388
386
399
409
414
414
418
421
433
439
434
447
458
456
452
456
460
453
437
428
413
408
402
414
425
450
479
497
492
482
481
477
482
483
479
485
479
470
461
444
437
450
471
473
456
449
478
501
503
488
474
468
466
475
489
493
488
483
497
529
540
510
478
473
479
484
506
517
506
489
469
474
493
491
482
490
517
543
531
503
496
508
523
523
520
515
500
487
486
487
490
496
515
526
533
541
544
546
523
511
509
490
471
462
481
495
486
493
517
539
538
537
532
526
532
519
494
467
456
466
468
458
460
488
519
537
550
559
555
540
514
493
485
486
490
500
513
524
530
517
515
534
553
554
543
529
508
487
463
466
503
546
550
540
514
496
491
513
536
530
520
526
519
499
497
498
487
474
485
512
535
536
536
556
558
535
517
509
498
501
484
482
516
529
529
527
530
538
550
552
545
547
533
514
507
512
527
533
530
527
515
512
501
493
512
514
506
509
511
513
519
520
522
507
503
512
527
532
536
549
551
548
550
536
516
507
505
502
491
489
513
551
576
555
527
506
517
530
528
525
524
512
510
511
517
526
536
539
550
555
544
527
516
510
519
527
530
534
538
531
511
506
502
504
522
525
531
525
520
521
519
516
522
528
535
543
557
560
544
535
535
518
503
485
476
485
495
502
517
526
510
497
492
498
514
537
544
539
536
532
523
515
504
498
491
503
528
540
538
536
531
524
538
538
527
533
554
573
580
558
516
505
512
503
512
528
530
533
548
563
562
564
558
551
544
523
513
514
518
521
526
549
564
547
529
519
515
512
509
519
538
535
530
534
543
542
530
504
485
473
461
448
449
469
487
483
497
512
517
515
522
539
565
604
643
690
745
802
828
820
807
804
806
803
748
685
626
575
534
482
431
412
419
432
422
418
443
448
431
425
429
443
455
445
440
439
428
427
442
463
477
471
450
436
417
437
476
507
500
485
457
441
440
449
465
481
480
476
463
448
448
452
464
490
495
488
496
498
478
463
466
468
465
478
508
532
521
505
485
471
465
473
480
472
492
520
531
533
530
519
507
507
507
511
514
504
500
514
518
513
527
551
559
557
559
560
548
522
514
500
495
527
565
589
602
580
558
543
541
539
551
587
600
590
574
563
554
543
543
537
547
573
602
617
624
627
622
612
603
601
606
603
592
582
573
554
542
539
560
587
598
590
572
575
560
530
504
521
526
504
510
522
505
487
489
495
492
488
474
450
436
431
422
431
447
451
440
419
397
405
414
422
427
408
390
405
436
449
440
409
387
385
403
417
427
444
451
446
429
401
379
366
383
399
412
415
424
448
471
473
470
478
479
479
471
470
478
467
439
427
438
453
448
452
453
453
453
463
462
460
451
462
490
509
489
465
445
442
443
463
492
515
521
496
478
472
461
477
507
511
504
507
513
500
487
473
461
457
465
477
491
507
517
509
493
460
439
453
471
474
483
479
475
467
451
452
482
533
565
563
539
503
493
490
499
494
494
508
532
548
538
506
487
465
446
455
484
511
492
471
461
460
463
477
497
515
507
489
490
486
479
483
497
508
507
487
480
491
510
534
537
508
488
489
491
502
518
519
504
496
508
524
507
491
482
479
484
509
534
536
514
493
497
503
520
542
539
495
460
447
460
469
476
493
518
538
530
512
497
488
483
468
470
482
513
531
515
497
504
513
490
468
471
491
522
530
501
475
453
442
479
514
524
533
538
532
508
480
468
475
484
503
516
527
524
504
501
515
509
496
482
461
454
458
479
497
510
506
492
485
485
495
491
483
491
499
497
478
488
510
513
494
505
538
575
600
579
551
526
521
509
487
489
489
472
461
476
492
507
523
556
572
563
545
517
509
503
496
497
509
506
505
513
505
500
514
542
560
551
548
545
526
508
488
466
462
489
503
514
527
538
547
562
560
521
495
509
516
525
552
564
566
564
561
556
546
535
529
537
527
510
524
533
530
530
535
540
552
568
571
581
549
506
523
554
544
527
513
492
474
493
529
562
586
579
552
521
515
509
512
524
547
547
543
537
526
514
492
489
508
514
512
487
478
505
529
524
504
497
504
501
521
554
609
685
752
803
834
831
810
812
827
818
768
707
620
535
483
455
443
446
467
469
442
435
447
470
484
484
476
465
460
457
474
468
429
407
437
461
462
477
488
491
495
487
492
489
474
457
455
481
505
498
483
460
448
448
454
470
493
513
498
469
467
480
491
480
481
498
501
505
513
504
513
512
523
527
520
524
534
524
506
500
510
523
535
545
566
554
533
524
522
526
518
502
491
494
500
499
509
525
526
499
477
497
537
574
595
588
575
564
547
540
544
567
586
592
587
592
594
585
581
576
574
580
581
594
615
597
562
541
542
574
602
622
621
596
581
581
591
589
580
592
604
614
617
606
604
599
591
593
580
563
561
570
563
545
528
513
496
488
498
513
518
493
464
470
484
484
467
447
443
453
453
441
448
444
432
428
416
394
398
422
435
429
434
446
441
428
446
457
446
420
398
390
389
402
417
422
427
447
455
448
449
449
455
463
470
477
476
463
461
461
458
461
469
484
486
479
466
460
454
452
460
471
483
491
480
476
463
443
446
469
480
501
522
521
510
500
493
490
473
437
432
464
498
506
494
498
504
496
517
529
505
510
516
510
509
524
532
510
482
481
480
488
488
478
482
495
507
517
520
523
503
495
489
482
500
512
513
495
483
487
486
496
517
515
512
513
502
497
509
513
507
493
475
465
474
500
527
537
524
502
508
500
475
472
479
489
499
515
527
537
537
526
505
503
499
493
501
519
529
527
514
506
517
504
481
470
477
493
507
523
549
547
528
522
527
524
519
526
536
548
544
527
513
522
521
503
493
493
508
525
542
535
501
473
486
506
511
507
495
480
498
530
526
499
492
510
531
541
532
531
545
530
496
494
507
517
526
529
529
538
548
554
539
515
495
489
487
494
509
507
505
501
487
490
511
532
515
490
487
507
535
551
529
509
503
491
478
486
501
508
521
531
532
523
505
511
534
553
547
511
488
501
513
506
498
483
466
457
481
509
532
540
539
538
520
504
494
491
498
513
539
546
559
553
537
507
481
482
496
505
500
505
529
538
533
532
538
542
530
521
510
512
509
502
495
473
480
518
541
554
542
519
490
490
485
497
506
512
532
538
523
512
490
500
541
571
592
614
594
530
487
492
516
519
509
495
494
506
519
543
556
568
565
542
519
537
571
583
578
569
529
490
480
471
435
420
432
456
476
489
494
504
504
485
479
473
466
449
447
472
526
573
623
690
766
825
861
867
855
849
816
773
743
705
648
590
539
479
450
456
456
436
416
424
461
484
481
473
470
460
459
454
441
440
451
460
487
506
488
450
431
424
417
415
420
428
431
444
442
450
470
486
492
484
478
490
502
489
472
476
480
470
470
486
501
510
531
545
538
522
508
485
472
475
484
490
484
486
486
491
491
503
487
473
501
529
550
541
521
518
533
532
504
495
497
497
483
469
505
547
559
554
545
541
532
525
514
516
521
531
545
559
567
568
584
602
611
603
576
566
584
601
609
599
587
573
555
536
525
531
545
563
588
605
623
632
632
631
629
625
613
595
561
532
529
555
579
572
550
540
544
543
514
501
502
512
519
535
535
525
520
499
467
457
465
472
471
479
461
438
431
413
386
388
408
410
407
400
392
409
434
430
422
424
430
431
430
420
406
413
425
425
439
423
405
402
422
447
434
395
366
355
357
395
441
459
456
466
481
465
429
422
459
485
488
490
476
467
469
468
439
424
425
431
450
476
493
509
512
505
497
489
493
489
447
417
423
444
465
487
495
519
546
546
514
479
448
443
449
456
461
481
486
477
478
481
465
461
491
524
527
512
499
507
500
492
488
490
498
517
527
523
513
514
508
493
493
482
448
436
469
509
515
517
514
504
494
500
510
504
487
476
490
523
526
507
490
487
497
505
502
498
496
504
512
504
501
489
466
457
466
473
469
479
502
517
505
488
496
517
520
519
518
532
545
528
500
493
507
522
534
493
465
458
467
475
494
516
506
497
510
529
553
567
553
506
491
497
492
486
478
474
483
491
494
507
502
492
492
507
536
544
531
517
499
500
508
514
518
502
495
508
527
533
535
542
546
528
508
494
492
504
518
515
496
488
503
500
483
479
477
483
507
527
532
521
507
513
530
536
543
528
498
476
466
465
487
524
554
564
551
542
532
514
500
501
508
522
526
506
501
508
497
497
510
515
530
525
507
493
499
505
494
488
492
482
486
504
512
498
509
526
536
534
535
541
546
542
524
513
516
523
502
483
492
509
532
545
539
535
537
540
546
527
513
505
497
479
472
481
513
548
568
547
525
516
494
496
501
518
550
547
521
507
508
531
554
551
550
548
545
530
523
522
530
576
619
618
594
552
523
508
518
527
518
487
474
482
503
516
512
504
501
494
494
497
493
479
474
506
534
524
506
495
481
483
495
514
522
505
498
511
539
571
642
717
759
769
787
819
842
853
848
812
754
678
597
528
485
455
430
421
410
407
410
416
434
446
432
427
434
442
454
481
493
497
494
494
487
473
450
445
457
455
445
452
454
454
467
477
468
450
432
429
439
438
444
457
469
462
462
480
512
515
503
494
483
478
486
497
497
504
502
493
500
500
503
531
553
531
502
475
462
480
494
494
486
501
527
550
555
570
580
550
515
503
531
543
528
520
535
538
523
525
525
520
517
528
562
588
591
578
571
561
554
539
517
500
509
536
557
572
565
554
565
582
598
617
636
646
647
642
627
610
607
607
595
582
571
577
595
612
615
604
596
601
601
597
588
591
588
584
580
579
575
556
536
524
527
541
527
491
475
475
465
470
486
501
515
512
483
459
447
431
412
403
392
392
410
443
451
421
412
417
422
430
444
459
453
433
430
438
459
453
437
409
392
410
423
428
435
450
471
475
464
463
439
432
441
446
456
480
466
427
412
428
458
477
494
501
510
514
492
464
428
411
426
444
465
478
463
444
448
466
490
504
520
517
500
493
506
509
480
471
493
512
515
519
517
512
504
504
510
513
504
487
462
464
479
491
508
507
491
484
482
478
472
464
476
485
485
485
493
493
487
483
488
505
514
520
525
505
496
502
501
502
523
519
499
483
497
492
476
477
489
501
502
494
489
471
453
459
478
493
484
471
481
503
522
520
507
508
512
506
501
492
485
497
506
508
511
507
494
496
509
516
498
489
496
509
505
487
485
501
513
514
509
520
499
467
457
476
491
488
488
497
503
514
518
511
489
472
495
530
537
542
548
536
511
503
514
529
541
540
517
495
482
461
475
509
520
530
518
504
491
484
509
526
521
511
514
507
503
516
521
514
497
492
499
501
494
487
477
470
464
460
474
491
498
528
548
525
506
499
503
511
524
524
517
512
521
506
510
526
532
533
519
512
511
509
512
508
498
497
509
516
518
497
468
480
523
524
514
505
507
504
507
524
544
545
531
525
519
508
497
504
527
538
546
547
535
514
508
525
518
507
514
531
554
570
559
522
499
483
479
514
550
562
556
537
536
533
538
563
566
557
555
535
517
528
540
550
547
520
507
529
560
566
548
521
513
534
556
561
549
534
507
488
506
531
558
583
584
565
556
537
502
483
480
492
501
493
492
496
500
509
512
507
503
488
482
480
487
496
512
542
578
611
659
691
721
770
815
857
873
861
825
786
749
702
640
574
503
444
409
402
424
418
391
398
416
439
464
465
456
462
481
485
474
459
452
459
463
455
458
456
452
456
488
483
466
449
438
452
459
472
479
478
472
463
446
446
461
482
504
504
491
498
512
485
470
472
482
507
509
501
495
494
502
496
486
487
515
540
543
511
488
476
486
504
515
528
531
515
495
489
492
497
526
545
539
516
495
499
528
538
543
561
567
554
543
529
520
526
542
555
568
586
580
559
540
532
550
570
579
592
580
583
601
615
597
573
560
565
587
604
616
610
591
569
569
582
590
607
625
628
609
591
591
592
583
580
587
586
573
552
555
555
552
544
532
542
556
541
513
498
488
489
489
488
494
473
446
426
419
439
458
469
459
440
423
419
424
425
434
433
416
404
393
391
401
415
422
408
402
414
425
425
414
402
418
450
469
464
459
454
437
426
440
441
428
421
425
434
434
451
470
456
448
473
480
470
455
449
446
455
448
430
428
435
457
484
477
475
489
505
506
516
521
504
493
477
472
484
495
507
508
507
503
486
488
489
485
483
483
495
497
491
478
461
454
473
494
502
500
501
494
491
497
488
489
499
506
510
490
479
475
467
475
497
501
504
509
510
509
494
485
492
521
536
531
530
526
521
516
516
509
497
493
486
485
491
482
479
480
471
482
514
522
506
486
493
503
508
494
483
507
537
531
507
498
501
493
504
523
521
496
488
503
518
506
494
507
516
528
534
547
551
532
527
529
523
521
515
508
489
488
496
504
489
482
492
505
504
482
474
490
509
531
529
508
487
498
525
546
565
571
552
522
515
515
509
489
478
479
504
535
538
544
551
561
566
562
534
510
504
485
477
480
490
504
495
490
495
505
499
503
511
497
497
513
520
519
519
517
521
528
538
554
537
518
514
529
546
541
528
516
523
521
512
504
487
491
516
513
496
490
491
501
530
572
574
565
538
505
480
467
482
505
518
518
518
513
512
528
547
549
556
558
532
509
523
536
531
522
524
530
521
505
507
516
512
519
522
510
510
515
542
569
569
552
529
496
482
507
535
546
535
538
537
539
558
575
572
575
572
577
564
518
492
490
502
512
521
532
540
536
521
514
537
534
504
492
496
495
504
509
494
484
506
521
504
472
469
465
457
480
529
550
525
503
494
493
504
531
577
659
745
817
866
901
926
899
846
804
748
683
618
555
504
450
409
378
353
351
365
385
398
386
367
382
409
425
441
456
453
445
462
491
498
483
473
472
461
452
472
492
477
454
463
485
497
503
508
508
515
541
566
549
506
476
454
460
479
487
484
482
500
511
500
502
509
525
532
513
516
510
480
476
494
505
499
494
472
487
519
529
524
534
549
572
569
547
544
545
519
503
522
541
557
563
572
563
550
536
519
515
531
554
559
539
527
531
550
578
592
602
597
580
579
584
585
572
569
599
605
602
597
592
598
593
583
579
591
604
608
607
614
611
598
585
582
577
574
573
580
587
592
597
592
575
570
563
568
578
570
569
551
525
515
523
535
537
537
532
514
479
451
439
433
448
454
454
438
420
443
468
433
401
397
405
406
404
412
414
407
407
410
418
412
417
419
409
396
400
418
422
423
431
436
443
433
412
414
428
430
444
465
465
444
436
442
428
413
420
460
473
459
448
434
436
444
445
431
419
442
467
448
446
507
554
538
519
503
484
475
475
490
511
504
474
453
443
443
457
461
463
483
492
493
478
451
443
469
498
510
509
503
488
484
483
490
498
494
482
467
469
477
484
499
512
488
472
459
479
489
485
476
465
470
483
493
496
480
479
485
471
464
475
485
490
493
498
498
485
495
529
542
517
481
476
496
527
545
530
505
508
518
520
499
488
491
501
495
471
453
468
500
502
485
491
507
507
493
481
484
484
486
505
532
544
538
520
512
506
504
506
513
508
508
521
538
547
546
548
558
552
545
523
492
481
476
488
501
498
503
504
502
514
521
524
542
550
554
530
496
489
490
494
510
520
518
527
521
507
516
519
527
527
517
513
525
548
549
538
541
532
520
505
489
496
517
515
512
517
509
498
498
518
519
525
534
526
508
505
511
528
542
540
549
529
503
503
512
514
517
503
497
503
520
532
524
514
517
507
510
517
526
535
540
543
550
550
527
511
518
532
535
529
522
519
523
534
532
509
487
484
482
477
483
509
534
533
533
530
540
544
539
534
519
500
511
528
539
526
528
547
553
564
563
561
558
558
562
561
553
567
554
526
518
507
496
493
492
491
499
491
480
486
476
495
508
515
509
495
487
497
497
512
524
537
548
552
562
585
613
652
712
786
831
844
862
876
853
791
703
626
571
525
476
428
390
365
365
356
350
363
383
388
387
395
408
427
436
433
445
461
475
493
512
516
524
499
450
435
444
472
475
464
462
477
481
470
469
473
475
477
471
471
488
495
493
490
493
491
476
477
478
495
505
491
465
451
476
530
574
593
585
570
551
518
499
486
479
470
480
508
544
566
543
507
495
516
530
539
545
540
523
501
494
498
502
510
522
542
544
544
554
562
562
560
555
552
536
532
533
549
573
593
599
600
599
597
600
596
569
564
569
559
550
558
589
617
633
630
622
603
581
567
573
598
604
600
603
611
596
583
574
550
539
541
541
544
543
540
542
526
512
516
533
532
526
527
531
533
518
485
438
417
429
458
466
444
413
384
370
395
431
462
460
431
388
368
393
418
424
410
404
407
402
418
444
458
458
459
454
428
400
393
407
424
432
427
431
444
474
499
490
465
445
430
423
435
449
449
443
437
445
458
471
466
458
452
462
469
481
493
489
487
482
466
460
470
480
476
457
471
495
511
509
496
491
493
500
532
543
545
540
520
522
523
509
478
460
454
473
488
492
492
494
481
466
456
460
474
491
496
492
498
516
506
485
490
498
504
503
508
532
535
517
503
497
494
505
509
513
512
506
514
518
501
495
492
498
495
481
465
460
481
498
514
502
467
440
441
458
471
473
483
473
476
489
498
512
544
568
567
529
493
485
505
515
503
483
485
522
536
524
526
538
547
536
516
505
500
492
485
487
492
506
521
535
527
488
457
451
459
479
505
504
503
508
514
532
516
488
479
485
484
482
476
475
501
532
540
541
549
534
514
509
519
534
546
543
519
503
500
497
494
490
486
508
528
521
513
512
510
519
542
548
537
520
509
505
496
485
480
489
501
500
511
519
524
528
531
511
511
525
527
525
528
534
552
553
526
492
472
480
502
505
481
460
458
463
466
477
499
513
525
530
525
540
544
544
534
512
508
501
509
520
555
595
593
551
526
521
518
506
504
503
490
482
477
481
506
537
542
528
522
519
500
496
515
535
533
519
507
506
512
519
519
519
522
525
523
507
496
492
508
524
530
544
553
538
522
516
499
484
475
463
457
467
459
465
499
547
619
682
717
752
801
836
859
856
813
764
710
649
601
553
508
466
422
396
391
395
402
409
410
415
415
421
437
449
441
431
450
460
477
489
485
468
454
457
468
467
464
473
489
489
473
458
448
452
468
483
474
468
459
458
472
485
498
504
502
499
504
511
513
505
500
495
489
463
443
459
486
503
507
510
526
541
533
512
508
496
493
502
505
491
498
498
502
511
514
523
537
546
537
523
506
482
492
514
535
557
568
552
522
501
503
527
562
593
598
591
568
571
578
578
586
597
602
600
593
586
578
574
572
560
567
574
567
554
568
580
582
595
605
605
603
595
598
603
601
589
576
561
552
537
522
525
543
573
600
616
622
602
587
592
586
557
547
547
528
502
489
484
483
476
462
445
439
430
427
429
426
437
443
440
446
447
439
420
403
384
389
413
417
418
421
430
437
451
478
492
503
483
450
425
417
440
473
475
438
421
428
447
448
432
417
421
441
460
467
475
474
479
487
478
474
474
482
474
470
470
474
480
478
473
480
468
452
494
526
502
483
472
454
457
463
466
470
487
512
557
581
562
519
472
455
463
488
498
501
513
544
560
550
522
499
505
539
558
533
524
534
521
494
477
490
498
500
499
480
461
451
480
513
518
508
516
521
532
525
501
492
513
523
510
481
469
497
523
524
505
492
505
513
511
509
512
531
540
528
510
497
502
523
502
455
456
481
507
535
547
533
512
507
497
478
486
516
528
538
570
592
567
517
484
484
497
510
505
502
503
497
498
519
534
541
541
529
506
485
471
471
481
511
528
527
534
537
531
519
500
484
500
510
521
528
527
511
498
502
523
535
538
526
522
516
521
525
531
509
474
466
482
509
504
499
488
491
507
506
489
487
514
549
559
560
543
512
504
510
505
502
502
497
491
493
517
520
500
488
495
523
549
559
547
517
499
493
488
477
468
477
494
519
547
554
561
570
547
498
473
471
473
493
526
553
543
536
536
520
505
492
504
524
532
533
522
521
533
538
532
533
533
556
559
543
537
547
563
544
513
501
498
495
505
519
519
522
533
531
527
524
534
529
504
501
515
529
532
535
525
520
527
531
536
543
549
544
537
530
525
512
491
488
496
488
480
473
482
510
531
521
503
492
505
535
572
615
641
653
698
761
816
850
848
831
800
751
687
630
593
561
531
497
469
417
357
344
376
418
442
447
458
463
460
440
453
502
516
486
485
484
470
472
477
465
446
430
434
441
455
480
501
528
544
530
490
457
439
425
428
444
480
521
538
534
513
493
490
497
492
487
483
478
482
495
511
521
512
514
531
539
533
519
494
496
522
534
527
511
500
512
519
507
506
510
531
541
534
515
493
488
516
545
558
568
534
506
490
479
503
537
556
560
558
554
553
561
563
572
579
575
557
558
561
570
565
548
550
562
586
597
587
580
585
588
576
567
583
599
609
620
612
597
567
539
553
562
563
555
549
562
565
554
565
569
574
576
566
555
551
547
527
509
507
500
487
461
442
431
424
438
472
494
478
460
443
421
416
427
449
458
456
446
429
399
374
364
373
390
415
426
421
426
431
428
432
431
437
447
442
425
416
433
463
468
436
417
425
435
448
455
454
446
435
435
441
470
482
477
454
437
440
462
456
430
411
427
464
485
482
486
487
497
496
498
502
494
485
452
422
420
433
448
461
476
484
495
500
494
490
501
515
504
489
490
480
473
477
502
527
526
506
484
461
456
456
471
484
492
486
470
465
475
491
493
502
489
479
480
481
460
437
457
492
523
544
553
537
518
517
497
486
480
457
464
476
477
503
516
519
527
528
500
474
477
470
451
442
443
470
499
503
509
506
490
468
462
490
519
530
543
532
496
472
458
463
480
498
512
522
498
480
478
492
511
518
530
530
515
496
479
475
501
508
515
528
540
534
514
480
473
490
505
490
461
469
499
522
533
527
538
533
507
494
498
489
484
488
501
517
534
534
544
524
507
505
497
490
499
521
528
510
498
515
535
526
495
488
519
535
541
537
517
507
500
502
499
502
507
505
493
499
509
520
537
545
543
540
536
528
521
534
541
524
505
502
494
492
499
523
535
531
518
500
507
530
527
520
522
533
553
561
549
524
505
505
522
522
502
469
442
452
463
474
507
541
572
571
560
563
565
553
549
541
531
530
535
522
507
511
528
537
530
514
499
498
503
511
511
511
522
530
525
526
537
549
535
522
528
546
558
551
541
529
516
518
546
571
577
569
546
521
501
487
473
477
498
521
536
542
533
542
525
477
462
483
507
507
492
491
515
524
523
545
559
571
604
640
676
723
764
815
851
861
830
784
738
685
619
564
520
470
429
421
415
400
403
410
391
397
438
456
450
465
486
480
470
473
475
458
452
448
454
450
447
448
472
482
482
483
481
487
471
457
454
450
449
446
455
477
485
485
498
506
509
522
522
487
471
479
497
526
533
535
547
538
530
527
525
486
472
489
493
478
480
492
511
520
528
541
524
507
511
506
504
509
503
507
512
503
509
526
531
535
539
536
534
555
561
556
563
561
552
545
549
561
562
552
559
578
586
597
604
599
600
608
612
601
597
589
586
601
604
583
566
559
580
587
580
580
580
591
596
599
610
609
596
585
578
569
565
572
579
562
535
542
552
539
542
543
537
539
516
480
467
480
504
507
493
479
468
451
435
445
469
455
425
408
389
398
428
452
449
445
440
432
425
426
440
453
454
437
417
407
416
438
445
468
469
462
475
480
474
451
430
415
406
398
404
419
444
461
448
426
428
429
439
470
506
510
485
457
444
452
476
485
488
494
499
507
522
524
492
466
467
482
492
489
506
499
477
460
467
475
492
507
511
505
503
498
494
487
484
484
502
522
505
496
498
496
474
458
462
469
470
476
481
483
485
493
511
541
577
563
524
493
484
490
494
488
495
504
501
497
484
482
492
505
513
520
524
524
523
498
467
459
477
494
499
497
503
496
478
467
464
479
493
513
535
526
515
538
541
510
481
457
451
447
448
472
499
516
528
527
511
513
515
508
500
493
491
505
506
500
505
516
521
505
497
495
507
510
492
479
483
483
465
458
482
495
517
545
548
532
521
512
494
496
485
467
467
486
510
512
514
520
529
543
542
528
513
492
472
460
476
490
498
491
488
477
487
484
486
506
530
535
509
488
494
505
514
519
521
512
516
515
500
499
504
513
518
513
498
493
490
491
490
483
485
499
521
536
539
538
532
509
491
489
503
525
540
525
501
495
487
492
507
514
509
514
530
520
514
510
496
496
512
517
515
504
483
466
452
457
459
468
508
524
514
516
518
511
511
515
515
516
523
534
544
539
528
521
518
526
534
549
563
550
522
496
482
487
499
508
516
528
538
540
513
480
451
450
465
465
468
486
491
496
499
496
509
522
553
567
555
532
510
494
508
539
545
544
546
547
549
567
571
553
536
531
521
520
537
538
522
505
495
488
497
515
502
494
500
495
485
470
472
490
514
530
533
514
496
487
490
497
501
502
498
499
496
469
434
410
435
516
591
664
724
763
790
819
830
829
825
794
760
737
684
612
566
516
448
413
407
400
399
414
437
435
438
448
455
454
458
448
423
412
415
435
464
489
480
445
437
448
452
451
469
488
480
453
456
480
483
471
468
476
485
490
490
479
478
491
503
493
481
472
468
479
482
472
467
469
461
444
448
475
502
520
520
509
521
527
525
514
506
521
523
512
506
491
477
485
497
510
539
545
536
534
532
523
498
484
500
533
562
553
540
546
572
549
532
509
496
500
509
527
541
544
550
564
578
574
564
548
539
540
560
571
580
595
610
610
607
591
569
560
587
611
639
660
650
634
628
601
572
573
564
553
560
550
547
556
558
563
564
551
548
551
560
555
546
525
512
483
450
451
467
473
470
463
449
429
418
435
448
449
455
436
421
414
411
404
404
418
432
439
434
428
419
421
427
427
427
435
436
424
420
426
439
449
442
434
442
457
445
430
412
395
400
439
457
453
470
489
495
474
456
461
473
456
449
452
427
411
420
453
490
511
502
496
497
494
492
491
481
453
435
470
529
550
531
506
484
469
469
473
480
504
517
509
496
491
497
499
488
462
459
466
454
448
457
472
493
500
507
521
498
465
455
467
490
530
546
524
491
467
468
485
498
511
520
526
533
504
451
432
468
510
526
540
552
529
501
486
474
461
474
472
469
468
472
486
487
474
467
479
528
548
542
522
491
481
494
503
513
510
507
522
526
515
509
492
487
482
486
497
518
536
527
499
480
464
462
467
481
481
483
511
531
524
522
515
508
514
533
544
528
505
498
497
493
514
537
535
525
524
505
475
467
454
458
473
487
515
537
560
563
542
530
527
523
521
528
530
517
522
540
545
553
560
542
527
519
513
497
497
516
529
520
501
488
493
501
514
527
524
514
516
530
543
575
598
575
531
498
486
478
483
499
505
516
531
527
528
541
550
536
508
506
523
545
548
563
578
570
538
500
478
481
487
479
475
486
521
553
563
561
555
552
533
510
513
528
527
506
487
491
527
565
584
587
564
532
503
497
519
537
535
536
527
525
531
540
537
548
563
562
541
524
526
517
524
517
518
521
508
510
521
494
477
494
515
523
514
506
516
538
557
553
529
507
496
481
482
516
547
546
540
532
528
531
522
506
507
524
531
533
525
526
537
551
583
588
554
522
513
517
544
567
561
546
543
550
548
537
527
521
515
526
533
524
509
497
491
495
491
503
527
535
532
520
500
504
504
501
494
484
497
520
532
513
494
507
524
542
586
641
686
734
785
835
867
872
864
847
808
761
716
650
582
541
498
455
421
398
390
414
419
423
440
436
439
470
494
487
461
461
475
475
463
447
429
434
440
451
449
446
463
459
449
448
452
475
470
480
505
500
485
484
492
482
461
448
454
476
482
475
475
491
507
510
518
531
533
518
491
483
496
498
495
494
490
479
479
482
483
492
517
528
501
488
509
532
526
508
503
504
516
536
539
530
531
537
546
552
538
522
520
539
552
563
580
582
563
545
529
528
531
527
525
540
563
563
555
572
580
573
591
598
571
559
553
545
556
586
609
605
596
603
612
603
598
600
606
614
624
604
556
505
500
533
563
572
572
587
593
598
605
579
540
537
535
536
517
497
470
455
469
491
497
481
455
434
441
481
507
517
514
475
428
411
419
429
424
425
437
433
418
416
425
441
440
428
427
430
438
448
443
439
426
410
404
404
407
416
427
428
425
434
461
474
470
449
453
464
454
441
451
470
462
444
434
440
465
474
466
455
461
461
461
476
484
485
476
461
454
461
462
461
484
503
508
526
542
534
505
498
514
503
489
481
481
488
505
514
501
487
487
482
480
500
505
497
505
520
512
499
484
472
461
459
477
492
494
489
490
497
498
509
521
534
531
504
472
455
451
483
521
534
544
545
526
521
507
502
511
502
486
479
491
506
509
496
477
482
487
502
518
507
500
501
494
492
511
516
507
503
503
507
523
538
525
509
506
512
510
477
457
467
487
485
479
499
520
520
502
487
495
510
528
539
533
531
518
510
518
516
516
543
544
525
513
522
543
539
518
520
525
510
492
489
496
501
500
512
515
500
496
501
510
503
495
493
505
512
532
550
536
520
501
483
488
508
513
495
503
512
523
529
527
521
516
516
532
544
548
541
522
510
530
541
519
494
486
483
500
525
531
529
518
495
488
498
524
556
557
538
511
497
505
531
556
541
518
499
490
490
499
504
502
504
508
509
516
522
516
504
497
508
531
552
557
551
531
512
519
531
544
560
542
503
483
485
507
530
550
569
583
583
563
550
549
537
499
473
468
484
494
508
528
523
515
523
522
521
532
549
554
546
524
505
503
497
478
477
511
562
593
595
574
543
519
517
537
537
530
523
530
543
548
549
566
572
549
515
494
496
487
495
525
548
566
571
564
549
540
535
523
524
532
526
527
522
509
518
531
552
570
566
524
497
499
502
500
498
484
481
490
487
478
477
494
514
518
509
517
568
620
641
649
686
753
805
838
833
815
796
777
737
661
578
517
486
499
495
477
452
435
421
417
418
421
422
422
450
470
457
437
435
453
464
451
452
464
463
463
471
481
475
451
425
421
425
428
443
474
505
505
488
490
492
480
465
470
479
461
449
463
463
468
488
500
507
498
494
506
505
500
495
483
474
473
483
495
522
539
524
510
497
505
519
535
539
528
513
498
493
490
476
483
504
532
540
519
519
548
579
589
584
561
548
540
540
546
536
523
540
554
559
571
571
569
568
573
564
556
558
557
562
577
586
587
572
569
583
587
579
573
576
584
583
569
559
565
576
598
640
660
640
625
629
619
605
585
558
533
534
540
542
546
537
523
511
511
517
514
508
505
513
495
457
442
445
454
460
467
468
455
438
421
429
440
426
416
426
426
423
416
419
440
452
448
432
434
433
423
413
414
431
440
436
422
437
472
489
465
449
450
448
436
428
429
439
453
474
497
489
460
448
457
452
439
437
441
461
493
498
488
486
486
474
454
438
433
460
467
469
473
479
485
480
465
479
498
498
480
461
480
528
542
527
510
484
470
470
469
468
481
492
478
476
507
530
523
500
489
487
490
485
462
466
485
518
539
522
497
503
531
534
513
481
449
457
489
527
545
523
494
490
479
477
486
498
500
491
489
504
508
508
499
482
466
470
485
488
478
487
518
545
578
584
559
526
495
484
487
499
495
484
459
443
454
478
492
512
522
541
552
536
494
482
480
461
459
469
490
519
541
545
529
516
535
532
508
489
482
492
499
514
504
493
484
496
524
535
533
515
509
514
520
510
510
522
516
502
490
483
478
485
496
512
518
543
545
519
507
519
531
550
564
554
536
515
485
468
471
494
507
505
502
499
504
508
494
462
439
455
507
547
566
570
561
542
518
489
494
503
491
479
483
480
489
512
529
536
535
521
511
512
525
528
511
500
516
517
509
510
506
518
530
531
543
520
491
484
487
490
498
507
530
543
543
543
545
533
493
455
452
480
510
526
519
519
522
516
514
530
523
528
534
528
526
528
517
506
510
503
490
498
516
530
537
538
525
508
493
485
490
505
513
505
487
477
484
465
462
490
517
541
556
564
547
536
543
547
539
531
537
539
530
533
531
519
528
533
539
551
553
540
529
528
549
557
554
533
490
453
446
465
491
510
532
551
534
516
491
474
468
479
515
532
502
471
456
457
468
477
487
481
468
462
477
498
535
584
625
660
720
788
825
834
841
839
806
777
760
712
619
549
508
475
459
453
430
411
379
358
379
413
431
437
432
441
440
452
465
473
461
459
451
442
442
453
457
473
473
458
467
470
450
436
443
447
447
461
465
455
465
482
506
518
507
500
497
491
491
484
493
505
491
473
473
482
486
480
484
490
483
474
477
497
503
516
535
539
533
525
520
515
519
521
526
530
541
533
508
505
515
518
512
473
445
467
495
527
550
555
549
535
529
532
553
566
574
579
585
573
565
572
572
575
557
551
567
593
598
578
582
598
591
574
576
593
604
594
593
602
617
619
594
562
551
583
609
601
589
573
562
557
541
541
565
587
589
590
598
586
556
540
541
546
557
552
545
533
506
485
469
454
463
471
480
494
491
470
437
405
385
410
448
441
424
432
438
422
394
384
398
401
402
413
412
418
426
421
437
462
467
457
440
443
442
436
424
419
440
471
498
510
492
463
451
447
441
426
423
430
447
453
451
464
462
461
465
472
481
468
456
465
478
481
477
482
483
491
491
477
473
480
496
506
494
488
484
475
462
477
503
512
506
485
472
487
510
528
517
510
518
525
514
494
493
502
498
491
466
454
480
485
477
504
533
544
536
532
533
519
505
500
505
506
477
451
453
470
501
502
497
499
500
490
475
490
505
505
503
505
502
514
528
513
515
538
548
543
514
481
480
492
490
487
507
525
527
522
515
504
495
507
512
507
517
538
514
489
503
514
524
526
518
527
531
524
527
533
523
507
501
497
502
513
509
501
498
484
478
499
535
546
526
503
496
518
536
535
524
500
489
500
528
526
512
513
529
542
542
546
527
507
499
514
531
517
493
492
491
482
474
483
492
499
506
531
535
527
520
526
544
549
548
544
535
527
517
508
499
477
485
507
516
524
532
519
509
502
512
526
525
522
519
502
485
479
503
543
559
553
533
514
501
517
547
542
519
506
495
504
516
519
532
546
540
509
464
464
488
497
513
521
517
533
538
557
557
548
548
528
508
504
506
511
510
516
528
519
508
509
519
532
534
515
498
505
533
546
542
527
529
542
559
570
554
542
552
559
536
504
485
477
491
506
505
508
505
499
489
491
510
528
549
569
567
550
533
528
542
558
560
547
526
523
532
553
564
559
552
551
568
566
560
557
555
552
546
543
528
523
496
475
471
476
476
496
522
535
524
527
538
537
518
504
496
497
502
527
537
507
470
467
479
517
567
601
634
673
724
772
824
845
846
847
828
797
758
705
623
551
506
478
467
448
435
439
442
426
402
414
457
471
464
461
458
467
486
498
505
509
501
493
487
464
460
478
474
457
438
435
455
477
474
457
444
439
443
454
473
502
533
540
524
509
505
507
501
497
490
482
473
488
507
530
542
544
550
540
527
507
488
489
495
487
491
507
518
531
541
526
523
524
507
501
506
532
554
546
515
498
499
519
551
571
575
570
574
588
585
569
534
518
531
543
542
547
554
548
541
553
569
578
574
585
589
594
596
595
587
577
585
595
586
565
558
574
593
609
625
643
644
619
602
606
594
589
601
612
600
595
594
582
559
540
548
555
548
544
541
552
575
586
552
504
484
483
493
498
480
442
419
439
467
483
463
442
446
460
463
479
495
467
438
421
411
406
397
385
395
417
430
441
447
440
429
430
442
448
445
439
439
430
414
417
439
460
461
448
423
419
447
468
469
473
479
490
495
484
458
452
454
449
444
447
452
463
471
451
449
472
490
506
521
518
499
484
492
510
524
507
481
474
475
469
468
494
525
527
504
489
505
522
513
504
510
507
520
540
525
495
476
476
485
484
490
505
512
501
504
496
485
488
503
511
523
503
481
482
493
488
480
480
494
502
515
518
511
505
498
489
492
505
512
510
497
494
515
540
550
536
519
505
519
536
524
508
508
508
510
516
532
543
540
516
510
517
508
500
499
499
489
485
492
496
501
496
492
491
494
503
510
509
505
494
485
498
520
543
553
552
546
532
530
541
549
546
528
522
522
508
496
483
477
477
487
494
504
518
536
551
522
486
485
494
515
531
542
531
516
510
513
519
524
516
510
496
504
536
540
536
532
517
509
506
497
494
496
503
494
490
503
519
541
552
536
522
507
504
518
523
490
466
465
474
492
510
525
524
521
509
508
509
518
521
513
532
530
515
528
542
542
532
517
507
510
516
515
511
491
473
478
510
532
529
543
531
505
496
498
505
507
483
479
479
488
492
496
508
519
508
507
536
548
554
553
548
542
533
534
534
523
514
502
499
503
514
526
515
493
482
496
518
529
525
501
482
486
498
522
537
534
528
514
511
507
501
511
533
566
568
551
538
547
557
549
532
516
515
534
546
539
516
513
526
534
523
504
491
490
499
517
531
531
530
529
519
494
491
497
497
508
498
473
476
508
531
536
520
508
484
474
476
477
494
501
504
502
495
501
501
518
545
588
652
720
788
832
846
855
847
819
779
734
671
614
566
524
479
431
408
402
377
358
360
373
383
396
420
440
435
425
430
453
481
510
523
515
484
462
449
453
464
455
431
419
435
464
493
520
521
498
469
457
467
482
478
444
436
464
484
471
460
459
477
494
500
515
521
535
556
567
546
510
468
432
423
431
452
487
506
517
531
545
547
532
522
507
496
503
506
498
503
512
514
522
528
526
523
520
537
538
522
513
503
510
527
529
532
539
550
554
550
536
542
562
564
566
567
562
554
547
554
571
601
623
622
601
582
562
552
562
586
601
593
579
588
605
617
623
625
613
596
587
587
592
595
593
583
560
542
540
540
515
508
529
548
535
514
513
508
505
498
497
499
494
496
497
480
463
451
440
430
431
443
458
455
447
425
406
440
468
427
391
374
383
395
399
414
427
427
417
399
404
426
430
406
398
415
427
432
434
429
435
444
439
445
433
434
450
453
455
448
446
446
453
466
468
466
472
494
498
480
462
464
475
477
464
438
425
450
485
502
501
501
493
484
485
492
501
499
503
498
490
461
452
480
517
534
519
493
479
480
483
475
460
471
505
546
550
517
478
449
443
463
485
502
512
501
495
500
514
528
518
494
493
484
467
467
478
474
479
493
482
467
477
484
483
466
432
424
467
507
505
505
510
531
545
539
510
479
470
485
486
462
422
441
501
539
532
530
530
526
517
511
500
483
486
489
487
482
478
469
468
489
496
493
500
505
507
498
493
489
484
491
499
506
516
522
526
548
554
524
498
480
475
470
489
518
537
536
505
501
509
532
538
527
536
533
526
530
534
510
492
491
496
492
469
458
495
502
474
466
481
498
519
534
536
535
517
507
505
503
504
512
519
513
506
512
518
534
544
537
545
525
497
479
479
507
532
539
525
504
490
487
496
492
479
470
473
487
495
498
509
528
548
549
532
508
485
457
456
490
508
512
518
521
540
547
545
528
515
530
564
557
527
505
501
509
517
516
520
533
526
532
551
535
499
484
491
490
480
475
475
481
492
495
503
510
514
510
494
482
483
496
522
532
530
550
566
561
544
532
527
531
538
538
548
559
544
544
557
554
546
546
531
512
512
533
552
550
534
530
504
475
472
499
527
532
516
500
498
503
510
527
546
562
557
536
523
510
504
508
515
523
521
521
519
513
522
505
485
485
496
517
533
537
526
516
531
555
553
571
612
640
682
723
757
780
801
817
799
760
713
669
627
565
500
449
427
413
398
363
327
329
352
384
419
454
481
489
494
480
464
463
483
505
512
511
497
488
470
444
445
453
456
467
473
483
499
495
475
484
505
516
521
514
505
494
488
506
526
521
508
499
494
494
507
516
514
517
501
493
507
510
506
507
527
552
545
526
516
514
497
489
504
523
548
570
578
568
542
526
524
536
538
538
541
531
529
542
561
561
549
543
539
540
545
557
565
563
562
561
562
563
556
569
593
595
578
559
532
519
531
558
592
618
625
626
608
580
577
592
616
627
625
617
597
592
636
645
601
572
573
579
593
601
624
651
635
596
559
545
557
553
554
559
539
515
505
499
497
510
515
510
502
493
488
485
473
449
421
410
417
438
461
488
504
507
483
453
444
439
438
442
442
450
463
446
432
439
457
457
439
450
469
480
480
459
426
416
426
443
456
446
432
425
436
458
468
449
442
459
485
493
488
484
481
475
491
504
507
505
490
492
518
531
514
490
477
477
484
497
497
491
494
494
488
489
492
499
512
522
508
491
473
470
489
509
517
527
525
499
476
468
481
500
520
536
523
497
484
479
474
477
496
512
513
518
530
540
537
520
505
505
507
508
495
502
513
501
483
483
509
520
515
509
492
496
526
530
521
503
483
479
468
465
484
509
525
527
509
510
526
528
534
543
513
477
455
453
484
511
515
514
516
518
539
550
525
500
487
487
496
507
487
460
479
523
541
545
527
507
497
493
489
476
471
480
491
504
515
512
499
509
536
551
537
507
484
478
486
510
513
496
479
486
507
499
486
467
457
470
490
504
516
527
533
537
547
555
546
533
516
497
494
496
508
494
491
511
523
527
540
545
530
502
479
483
483
486
499
498
490
496
508
528
556
552
516
493
473
451
442
457
493
513
503
499
514
518
518
516
497
486
494
511
513
496
482
468
461
473
500
543
577
588
576
522
464
452
489
519
515
502
509
521
523
517
509
498
488
501
516
533
528
514
483
457
448
455
487
525
537
529
524
511
491
493
496
507
541
560
569
563
548
538
544
560
555
521
506
526
542
539
535
537
529
519
517
512
519
538
528
511
519
526
518
501
495
489
483
484
517
543
532
504
477
470
479
484
501
510
502
495
488
486
508
515
515
541
570
595
625
650
688
736
779
830
864
860
815
745
682
637
580
508
451
428
407
381
377
388
393
408
408
422
430
411
411
425
435
448
476
480
467
468
481
491
492
483
475
476
478
478
475
483
471
463
470
487
493
479
452
445
458
481
496
505
493
467
465
471
485
496
492
495
506
524
524
505
496
516
529
531
528
522
508
503
512
522
519
511
530
546
530
512
507
512
493
474
484
520
549
547
554
568
561
550
536
537
536
532
530
525
519
523
542
544
530
537
553
560
566
562
568
582
598
607
596
568
543
564
597
628
621
605
593
592
595
594
616
609
587
585
595
602
620
622
598
577
569
575
586
584
575
564
567
574
583
586
574
558
556
552
550
559
549
527
508
491
490
507
512
496
489
490
486
480
470
453
408
382
414
452
465
462
466
449
429
416
411
410
417
423
425
434
442
420
409
420
425
406
390
387
390
392
401
413
431
435
443
459
452
445
436
417
424
424
418
420
428
447
468
472
461
458
464
468
477
473
461
444
445
476
482
468
466
469
466
470
482
500
497
485
489
499
497
481
465
452
468
498
510
495
486
490
476
472
484
492
487
470
443
448
466
486
504
509
500
485
479
473
466
465
481
501
504
496
504
503
487
485
499
504
515
510
492
473
463
470
484
495
505
495
483
479
468
464
473
486
509
523
505
482
472
477
490
493
479
467
465
475
504
526
500
486
487
489
501
525
520
481
463
480
498
511
525
535
524
505
492
500
518
519
494
498
520
521
507
489
475
483
501
510
515
507
492
490
496
510
522
506
489
491
479
466
464
487
504
513
507
503
486
492
515
519
516
533
528
511
490
467
454
466
475
478
492
521
530
514
495
498
517
521
510
514
522
536
543
534
510
499
493
480
464
468
489
499
499
502
509
497
481
475
524
544
525
510
484
476
480
482
503
530
541
534
520
500
471
459
472
499
520
507
489
495
498
509
504
485
477
492
520
539
532
510
491
481
474
471
496
532
558
552
532
507
476
462
466
483
509
515
512
529
528
498
489
497
520
534
539
533
512
494
497
514
525
519
519
529
522
510
505
505
520
525
512
513
510
509
507
501
514
539
540
522
497
503
531
562
571
565
570
565
551
523
505
501
488
490
508
512
523
520
491
460
464
474
466
457
459
473
496
517
529
523
518
546
587
631
681
719
758
806
844
838
822
797
736
688
652
583
505
464
436
414
413
414
416
406
416
422
422
445
457
439
433
432
432
447
470
487
488
474
449
432
434
436
425
419
428
447
479
492
481
496
508
494
472
470
471
472
465
461
480
474
471
492
504
506
490
474
475
481
487
487
495
510
517
526
538
528
511
507
497
498
506
524
515
495
500
512
525
552
543
510
496
494
500
523
545
551
560
562
548
517
495
507
536
551
533
527
552
567
557
561
563
557
561
562
547
522
514
521
526
539
574
586
594
617
604
583
574
592
616
615
602
594
583
573
585
605
612
607
613
604
591
602
608
610
602
606
605
586
571
569
570
576
580
579
550
521
524
531
524
500
478
492
507
502
489
483
467
449
436
443
438
430
462
491
473
447
438
442
445
442
457
461
458
456
462
435
395
389
398
400
400
402
409
421
433
458
456
435
411
397
410
427
437
436
452
468
472
465
444
437
451
459
470
480
493
510
520
510
477
439
430
440
446
433
421
442
461
466
476
507
519
524
539
510
466
459
471
468
472
479
487
496
484
455
454
488
522
539
524
497
493
504
501
487
474
466
471
505
535
518
497
496
488
485
485
467
467
494
522
525
530
519
502
480
479
477
471
469
484
505
513
507
515
521
504
493
492
504
521
510
490
478
495
512
517
515
503
500
504
503
499
503
500
486
477
493
522
518
499
496
492
497
498
486
488
501
518
520
507
492
489
500
523
529
515
507
517
527
525
524
525
504
502
498
500
507
526
531
513
492
491
491
489
497
527
538
527
516
517
512
510
507
491
474
489
510
509
517
522
505
492
512
538
535
522
519
522
507
499
505
499
494
499
510
515
508
503
481
467
492
520
526
528
516
503
512
518
512
501
499
519
539
542
534
515
515
526
527
536
532
510
505
504
518
552
562
548
527
506
496
506
513
525
520
515
528
527
525
532
536
525
508
498
489
488
496
504
526
543
545
544
544
553
554
547
533
522
529
536
541
521
482
476
489
503
508
522
535
526
500
480
464
472
477
478
473
474
493
534
557
547
535
531
543
556
559
536
518
516
513
510
521
532
542
548
554
561
552
533
528
544
562
549
520
510
521
533
532
534
512
484
475
482
499
511
508
498
494
492
493
485
474
487
518
534
512
480
472
485
505
506
503
501
493
495
492
487
502
530
566
603
629
662
709
757
811
851
861
837
784
738
702
649
591
540
503
475
444
403
389
389
375
371
374
393
397
395
424
450
462
458
442
447
479
488
455
442
451
453
429
411
434
480
517
508
483
481
487
469
442
423
424
443
458
468
479
483
481
488
486
476
459
449
454
451
469
484
489
506
511
507
502
507
498
493
493
492
487
476
484
503
519
533
539
519
512
514
523
505
486
495
524
537
548
540
529
518
506
513
532
546
528
508
501
500
505
519
523
540
559
565
572
572
579
575
569
564
564
561
560
576
588
587
597
599
587
568
546
558
598
613
591
576
585
589
588
588
596
602
597
585
579
574
586
582
579
571
543
541
564
558
539
534
532
533
534
525
516
501
482
470
481
485
489
485
472
458
457
461
459
453
441
414
402
430
447
450
456
459
439
423
413
406
409
415
413
412
420
425
410
385
384
419
442
441
447
442
436
425
430
443
463
470
461
453
440
424
419
441
465
484
486
468
455
452
449
452
474
481
477
477
481
495
504
499
482
468
470
486
492
486
469
467
466
467
480
488
476
474
495
505
498
477
465
473
485
502
515
520
516
516
509
494
481
493
523
520
502
496
497
501
505
499
498
498
494
491
497
512
521
513
503
495
481
474
456
449
457
471
484
506
522
525
514
504
501
507
510
510
487
480
502
519
526
513
492
490
484
477
487
514
518
517
515
508
495
485
469
462
482
510
527
528
507
481
478
493
507
509
490
476
477
487
508
539
549
536
506
472
470
498
511
514
522
521
512
514
506
502
518
533
527
522
534
562
567
532
502
482
467
456
464
479
484
508
533
519
508
501
494
507
525
543
544
535
534
538
539
510
512
531
523
513
513
514
499
494
499
506
495
493
506
510
524
514
504
506
504
506
524
520
520
516
509
525
534
521
527
532
542
557
554
514
504
525
541
549
541
493
464
469
496
531
561
563
544
528
533
532
520
529
538
534
512
502
508
510
503
512
514
513
518
530
547
566
579
570
527
519
529
550
558
536
522
509
489
492
509
525
540
522
496
490
491
508
519
512
499
504
514
530
542
544
537
522
498
482
480
492
509
538
552
564
552
533
524
523
519
516
532
560
567
548
548
571
557
529
500
482
495
530
554
552
540
525
511
508
515
516
514
544
564
563
560
551
533
527
527
508
502
496
485
495
514
529
548
550
530
516
514
515
504
510
531
539
526
492
483
478
472
497
531
526
503
495
508
529
554
576
608
643
673
722
781
812
815
817
818
791
745
695
656
614
568
518
486
463
434
407
396
395
386
372
366
382
392
432
461
464
473
488
500
504
489
473
474
487
492
480
445
427
429
459
489
489
482
473
464
466
472
476
478
481
487
481
474
488
518
530
523
515
516
496
489
495
492
469
451
460
476
497
505
519
510
506
520
516
515
520
518
513
509
517
515
500
505
531
534
515
492
478
484
499
522
536
554
559
550
544
540
541
551
558
534
514
525
543
547
570
584
576
576
573
569
583
595
597
572
550
559
577
585
579
566
554
557
594
618
608
608
605
593
600
621
621
600
595
592
570
551
554
571
584
582
586
613
621
606
604
607
596
575
548
528
529
509
490
480
460
465
494
500
464
436
430
455
465
460
446
449
454
442
417
420
440
442
435
422
417
409
409
414
432
447
449
445
443
442
436
433
425
415
421
423
411
417
433
431
422
423
431
445
443
437
447
458
449
446
459
451
439
453
451
443
444
451
435
448
485
515
509
487
470
453
452
461
482
497
476
454
452
466
472
461
463
489
491
473
466
475
470
459
464
486
503
525
545
530
514
476
450
452
455
458
479
501
516
521
525
524
521
512
489
476
488
506
509
507
488
479
487
479
469
459
467
467
457
478
511
523
508
502
499
496
487
483
490
495
496
491
504
523
530
533
522
501
483
477
477
502
537
543
521
494
487
472
457
461
475
483
478
460
455
463
461
461
482
521
539
532
514
502
506
519
529
533
536
540
537
523
518
502
481
478
495
513
511
502
492
496
515
522
519
497
473
464
469
481
488
506
507
503
494
489
492
493
489
496
504
488
475
489
532
569
557
527
521
529
527
523
507
483
489
500
506
502
493
497
535
545
543
539
532
529
523
507
488
484
482
479
477
474
468
493
524
528
516
500
490
489
490
496
508
516
508
503
516
534
541
547
533
509
483
483
518
521
497
489
490
496
498
499
513
518
489
465
478
505
529
536
543
542
530
527
535
523
501
489
485
511
531
531
524
521
520
512
507
512
514
518
519
521
534
527
510
505
505
497
501
515
522
517
510
496
490
490
494
500
496
494
497
525
549
552
554
537
509
505
505
513
510
502
483
473
469
485
504
510
515
534
555
563
576
575
546
506
515
545
548
527
516
515
515
522
534
538
531
530
531
524
524
532
539
544
542
545
551
547
529
517
495
487
478
464
472
483
496
519
537
523
495
496
510
510
500
512
505
498
496
498
513
538
565
589
605
632
680
733
775
794
823
835
797
766
744
711
665
629
588
524
465
424
392
366
368
391
407
420
419
430
442
462
473
476
468
466
490
499
475
439
424
433
450
464
474
482
479
487
492
494
489
490
494
480
472
481
486
484
503
520
520
495
480
464
449
460
488
506
524
537
522
514
510
524
535
512
483
464
477
504
503
504
527
533
507
495
501
516
522
505
481
480
511
555
582
592
589
587
564
539
524
514
507
512
520
522
527
542
551
550
567
586
575
540
520
511
524
546
555
567
570
574
600
608
606
596
581
583
593
576
563
583
618
630
622
605
598
605
621
618
601
594
596
603
614
599
579
567
579
593
604
611
604
570
538
507
501
498
491
505
525
534
538
537
524
493
469
456
467
466
449
440
456
474
455
436
431
437
429
426
432
442
455
448
439
427
418
413
411
430
454
437
425
426
419
415
409
407
421
436
437
434
443
440
439
453
463
476
461
440
443
446
470
477
467
457
439
429
439
464
486
481
467
468
471
465
456
452
466
486
502
512
