239
403
239
143
130
401
717
922
1006
963
686
401
238
143
123
387
706
916
1006
966
686
401
238
143
109
354
677
897
997
963
677
396
236
141
93
303
628
866
983
958
670
392
233
139
84
250
575
830
965
954
667
391
232
139
83
213
535
805
956
959
672
393
233
140
84
188
506
787
950
961
676
396
235
140
84
176
494
783
955
974
691
403
240
143
86
182
505
798
974
996
713
416
247
148
89
190
518
812
989
1014
733
428
254
152
91
205
540
835
1010
1023
751
438
260
156
93
221
562
857
1023
1023
770
449
267
159
95
234
580
873
1023
1023
783
456
271
162
97
245
595
887
1023
1023
796
463
276
164
99
257
607
896
1023
1023
804
468
278
166
100
273
624
909
1023
1023
806
469
279
167
100
254
605
896
1023
1023
797
464
276
165
99
246
601
899
1023
1023
804
468
278
166
100
259
617
912
1023
1023
827
481
286
171
102
270
628
920
1023
1023
831
483
288
172
103
240
594
896
1023
1023
831
483
287
172
103
235
590
897
1023
1023
844
491
292
174
104
239
599
909
1023
1023
864
502
299
178
107
239
597
909
1023
1023
866
504
300
179
107
226
582
898
1023
1023
862
501
298
178
107
215
570
889
1023
1023
867
504
300
179
107
212
567
889
1023
1023
876
509
303
181
108
209
563
888
1023
1023
883
513
305
182
109
205
560
889
1023
1023
895
521
309
185
111
201
557
890
1023
1023
904
526
312
187
112
197
550
885
1023
1023
909
529
314
188
112
195
550
888
1023
1023
919
535
317
190
114
193
547
887
1023
1023
925
539
320
191
114
189
542
884
1023
1023
927
540
320
192
115
181
529
871
1023
1023
923
537
319
191
114
173
518
862
1023
1023
923
537
319
190
114
167
508
856
1023
1023
925
539
320
191
114
166
510
864
1023
1023
946
551
327
195
117
171
522
881
1023
1023
976
570
338
202
121
178
535
896
1023
1023
994
581
345
206
124
181
539
904
1023
1023
1010
591
350
210
126
187
552
921
1023
1023
1023
606
359
215
129
193
562
935
1023
1023
1023
618
366
219
132
196
567
942
1023
1023
1023
628
373
223
134
201
578
956
1023
1023
1023
640
380
227
136
204
583
962
1023
1023
1023
648
384
230
138
204
582
964
1023
1023
1023
655
388
232
140
199
572
951
1023
1023
1023
643
381
228
137
193
566
946
1023
1023
1023
645
382
229
137
191
560
940
1023
1023
1023
634
376
225
135
172
527
905
1023
1023
1023
626
371
222
133
174
537
921
1023
1023
1023
641
380
227
137
173
535
923
1023
1023
1023
651
385
231
139
176
539
930
1023
1023
1023
659
390
233
140
177
543
933
1023
1023
1023
658
389
233
140
169
525
913
1023
1023
1023
653
386
231
139
176
546
943
1023
1023
1023
681
403
241
145
172
528
915
1023
1023
1023
661
391
234
141
172
533
926
1023
1023
1023
690
408
244
147
208
603
1006
1023
1023
1023
727
430
258
155
203
583
981
1023
1023
1023
718
425
254
153
192
561
949
1023
1023
1023
680
402
241
145
167
513
894
1023
1023
1023
666
394
236
142
177
542
933
1023
1023
1023
690
408
244
147
187
563
963
1023
1023
1023
709
420
251
151
178
540
932
1023
1023
1023
686
406
243
146
169
529
925
1023
1023
1023
685
405
242
146
155
492
874
1023
1023
1023
637
377
226
135
139
457
822
1023
1023
1016
605
358
214
128
144
469
829
1023
1023
1013
606
358
214
128
156
490
847
1023
1023
1016
610
361
215
129
167
508
863
1023
1023
1020
613
363
217
130
176
525
876
1023
1023
1023
617
365
218
131
183
535
885
1023
1023
1023
621
367
219
132
184
537
887
1023
1023
1023
618
365
218
131
183
535
883
1023
1023
1021
616
364
218
131
187
539
883
1023
1023
1014
614
363
217
130
198
552
888
1023
1023
1002
608
359
215
129
208
562
889
1023
1023
986
599
354
212
127
217
568
883
1023
1023
960
584
345
206
123
221
566
869
1023
1023
931
567
335
200
120
226
567
859
1018
1023
903
550
325
194
116
230
564
844
991
1020
870
530
314
187
112
237
564
829
962
981
831
506
300
178
107
243
562
810
927
934
787
479
283
169
102
246
553
782
884
882
737
447
265
158
98
257
551
760
846
834
690
418
247
147
95
262
544
738
812
794
653
395
233
139
92
261
532
713
776
750
610
366
216
128
86
248
506
675
728
696
556
332
196
116
80
240
482
631
669
627
487
287
169
100
75
237
463
593
614
562
425
249
147
87
78
257
480
603
621
571
442
261
154
92
94
291
520
644
662
613
482
287
169
100
96
291
527
660
684
639
509
305
180
107
98
290
528
664
691
647
518
311
183
109
95
286
532
681
720
686
561
340
200
119
97
286
543
705
757
733
611
376
222
132
98
216
394
523
590
610
559
393
230
136
106
225
399
526
594
615
566
400
234
138
107
226
399
527
595
616
567
404
236
139
109
227
401
529
596
616
569
406
237
140
108
223
398
528
597
620
573
411
240
142
107
219
392
522
591
615
571
413
241
142
108
223
396
527
597
621
577
418
245
145
107
216
389
521
594
620
578
420
246
145
108
217
390
520
593
619
578
421
247
146
106
214
387
520
595
623
583
427
250
148
108
215
389
523
596
623
583
428
251
148
108
214
389
524
599
626
588
433
254
150
111
220
395
530
606
634
595
440
259
153
113
223
400
537
613
641
603
447
264
155
115
224
402
540
617
647
610
454
268
158
116
226
406
545
622
651
612
454
268
158
115
225
407
548
628
658
620
461
272
160
116
226
409
550
629
658
621
461
272
160
115
224
409
553
633
662
623
461
271
160
113
221
408
554
635
664
626
461
271
160
111
220
410
558
641
672
634
463
271
160
108
216
411
563
648
679
637
457
267
158
102
207
411
572
661
693
649
465
272
161
105
211
417
580
669
702
659
474
277
164
107
216
424
587
676
708
665
478
280
165
107
216
426
592
683
715
670
479
280
165
106
211
425
595
688
721
676
482
282
167
106
210
425
596
690
723
679
486
285
168
107
212
428
601
698
732
688
493
289
170
108
213
432
607
704
739
696
501
293
173
109
212
432
608
706
742
700
503
294
174
109
214
435
612
710
746
703
504
295
174
109
210
434
615
715
751
710
512
300
177
111
218
444
625
726
762
720
520
304
180
114
225
453
633
731
767
726
526
307
182
114
225
453
632
730
766
726
526
308
182
114
223
451
634
735
771
730
530
310
183
114
221
449
633
734
772
733
536
314
185
116
226
456
639
739
774
734
536
314
185
116
222
451
634
734
771
733
536
314
185
115
219
449
635
736
775
737
541
317
187
116
219
449
637
740
778
741
546
320
189
117
221
450
636
739
777
741
546
320
189
117
218
448
637
741
782
747
553
324
191
118
219
450
640
744
784
749
555
325
192
119
220
452
643
749
790
756
562
330
195
120
219
453
646
752
793
755
561
329
194
119
216
451
646
754
795
761
567
332
196
121
223
459
650
755
796
763
569
333
197
120
217
452
647
754
795
760
566
332
196
120
212
450
649
760
803
768
575
337
199
122
216
454
652
762
803
769
576
338
200
122
224
464
662
769
810
776
581
341
201
124
223
464
663
773
814
781
586
344
203
125
224
464
664
774
815
781
589
346
205
126
225
465
664
773
815
783
593
349
206
126
221
459
659
769
810
778
591
348
206
125
215
453
655
768
810
778
593
350
207
126
215
452
654
767
811
783
601
355
210
128
218
453
651
763
807
779
599
354
209
127
210
442
642
755
801
773
594
351
207
125
203
433
634
749
795
771
595
352
208
125
205
436
637
752
800
776
601
356
210
127
206
436
636
752
800
778
604
358
211
128
204
435
639
756
805
783
612
364
215
130
207
436
637
753
802
781
611
363
214
129
206
436
639
756
804
783
614
365
216
130
207
439
643
761
811
791
621
370
218
131
204
433
637
756
806
786
618
368
217
131
203
434
641
762
813
793
623
371
219
132
205
438
646
767
818
799
629
376
222
133
204
436
646
770
822
803
636
380
224
135
206
438
647
770
821
803
637
381
225
135
206
439
649
772
824
808
644
386
228
137
208
441
652
775
827
809
644
386
228
137
207
441
653
777
829
812
648
389
230
138
204
437
650
775
828
810
646
388
229
137
203
437
652
778
830
812
648
389
229
137
203
438
653
780
834
818
654
393
232
139
203
437
653
779
832
815
651
391
231
138
201
436
653
781
834
817
654
393
232
139
202
439
657
783
835
819
656
394
233
139
199
435
653
779
833
818
657
395
233
139
201
438
657
784
837
822
661
398
235
140
203
439
656
784
837
822
662
399
236
140
200
435
654
782
834
819
660
398
235
140
196
431
651
780
834
820
662
399
236
140
193
427
649
779
833
819
661
398
235
140
190
425
648
781
837
824
666
401
237
141
192
426
649
782
837
824
666
401
237
141
189
424
648
783
841
818
565
595
1023
1023
948
552
328
196
118
71
44
28
535
836
505
297
176
105
63
39
24
16
482
757
449
264
156
93
56
34
21
14
474
750
445
261
154
92
56
34
21
14
462
734
434
255
151
90
54
33
21
13
458
737
438
257
152
91
55
33
21
13
466
760
456
268
158
94
57
35
22
14
469
778
471
277
163
97
59
36
22
14
471
788
481
282
167
99
60
37
23
14
480
815
504
296
175
104
63
39
24
15
493
844
532
311
184
110
66
40
25
16
510
877
564
330
196
116
70
43
27
17
526
907
597
349
207
123
74
45
28
18
517
900
592
346
205
122
74
45
28
17
521
915
612
358
212
126
76
46
29
18
531
936
640
374
221
132
79
48
30
19
542
956
669
390
231
138
83
50
31
19
550
971
694
404
239
143
85
52
32
20
558
987
721
420
248
148
89
54
33
22
573
1008
758
440
261
155
93
57
35
25
584
1022
789
458
272
162
97
59
36
28
596
1023
827
479
284
169
101
62
38
32
615
1023
879
508
301
179
107
65
40
40
636
1023
939
543
322
192
115
69
43
46
647
1023
968
562
332
198
118
72
44
49
653
1023
1002
584
345
206
123
74
46
58
671
1023
1023
620
366
218
131
79
48
69
688
1023
1023
654
386
230
138
83
51
72
691
1023
1023
665
392
234
140
84
51
70
688
1023
1023
668
394
235
141
85
52
67
682
1023
1023
668
394
235
141
84
52
62
673
1023
1023
663
391
233
140
84
51
60
669
1023
1023
670
395
236
141
85
52
63
675
1023
1023
689
406
242
145
87
53
65
679
1023
1023
702
413
246
147
89
54
64
677
1023
1023
708
417
248
149
89
55
65
677
1023
1023
728
428
255
153
92
56
63
673
1023
1023
727
427
255
152
92
56
60
666
1023
1023
728
428
255
153
92
56
55
655
1023
1023
722
424
253
151
91
56
53
652
1023
1023
730
429
256
153
92
56
54
653
1023
1023
747
439
262
157
94
57
54
653
1023
1023
756
444
265
158
95
58
53
650
1023
1023
756
444
265
158
95
58
51
645
1023
1023
755
443
265
158
95
58
50
642
1023
1023
757
445
265
159
95
58
49
639
1023
1023
763
448
267
160
96
59
50
640
1023
1023
777
455
272
162
97
59
52
645
1023
1023
794
465
277
166
99
61
60
663
1023
1023
839
491
293
175
105
64
71
682
1023
1023
880
514
306
183
110
67
81
697
1023
1023
919
536
319
191
114
69
91
712
1023
1023
964
561
334
200
120
73
105
728
1023
1023
1002
582
346
207
124
75
117
742
1023
1023
1023
605
360
215
129
78
124
748
1023
1023
1023
611
363
217
130
79
110
732
1023
1023
1023
598
355
213
128
77
106
728
1023
1023
1011
588
349
209
126
76
103
725
1023
1023
1007
585
348
208
125
76
119
744
1023
1023
1023
608
361
216
130
79
123
747
1023
1023
1023
621
369
221
133
80
141
765
1023
1023
1023
620
368
221
132
80
141
766
1023
1023
1023
648
385
230
138
83
141
764
1023
1023
1023
652
387
232
139
84
143
767
1023
1023
1023
664
394
236
142
85
144
767
1023
1023
1023
668
396
238
143
86
126
749
1023
1023
1023
630
374
224
135
81
142
767
1023
1023
1023
648
385
230
139
84
276
864
1023
1023
1023
758
448
269
161
97
372
920
1023
1023
1023
795
470
282
169
102
365
916
1023
1023
1023
787
465
279
168
101
351
908
1023
1023
1023
781
461
277
166
100
368
918
1023
1023
1023
793
469
281
169
102
392
932
1023
1023
1023
805
474
285
171
103
379
925
1023
1023
1023
802
474
285
171
103
350
908
1023
1023
1023
786
464
279
167
101
335
899
1023
1023
1023
780
461
277
166
100
334
898
1023
1023
1023
783
463
278
167
101
322
891
1023
1023
1023
776
459
275
165
100
276
865
1023
1023
1023
754
446
268
161
97
251
849
1023
1023
1023
723
429
257
155
93
154
775
1023
1023
1023
660
392
235
141
85
124
746
1023
1023
1023
631
375
225
135
81
134
758
1023
1023
1023
659
391
234
141
85
146
768
1023
1023
1023
673
399
239
144
87
156
778
1023
1023
1023
677
402
240
145
87
164
785
1023
1023
1023
682
405
242
146
88
176
796
1023
1023
1023
693
411
246
148
89
168
789
1023
1023
1023
690
409
245
147
89
168
788
1023
1023
1023
694
412
247
148
89
165
785
1023
1023
1023
698
413
248
149
90
171
791
1023
1023
1023
698
413
248
149
90
173
793
1023
1023
1023
704
417
250
150
91
184
802
1023
1023
1023
708
419
251
151
91
172
792
1023
1023
1023
702
416
249
150
90
164
785
1023
1023
1023
697
413
248
149
90
155
776
1023
1023
1023
693
411
246
148
89
149
771
1023
1023
1023
691
410
246
148
89
148
769
1023
1023
1023
695
412
247
148
89
144
766
1023
1023
1023
697
413
247
149
90
140
761
1023
1023
1023
699
414
248
149
90
135
756
1023
1023
1023
702
416
249
150
90
127
747
1023
1023
1023
702
416
249
150
90
120
739
1023
1023
1023
702
416
249
150
90
113
731
1023
1023
1023
702
416
249
150
90
109
724
1023
1023
1023
703
416
249
150
90
103
717
1023
1023
1023
704
417
250
150
90
99
710
1023
1023
1023
706
418
250
150
91
94
703
1023
1023
1023
708
419
251
151
91
89
695
1023
1023
1023
710
420
252
151
91
84
686
1023
1023
1023
712
421
252
152
91
80
677
1023
1023
1023
714
422
253
152
92
76
666
1023
1023
1023
715
423
253
152
92
71
655
1023
1023
1023
715
423
253
152
92
68
644
1023
1023
1023
716
424
254
152
92
65
635
1023
1023
1023
718
425
254
153
92
63
625
1023
1023
1023
720
426
255
153
92
61
616
1023
1023
1023
723
427
256
154
93
59
600
1023
1023
1023
714
422
253
152
91
57
587
1023
1023
1023
709
420
251
151
91
56
581
1023
1023
1023
709
419
251
151
91
56
569
1023
1023
1023
701
415
248
149
90
55
560
1023
1023
1023
703
416
249
149
90
55
558
1023
1023
1023
705
417
250
150
90
55
551
1023
1023
1023
703
416
249
149
90
55
547
1022
1023
1023
706
417
250
150
90
55
549
1023
1023
1023
715
423
253
152
91
56
555
1023
1023
1023
730
431
258
155
93
57
559
1023
1023
1023
742
438
263
158
95
58
563
1023
1023
1023
752
444
266
159
96
59
564
1023
1023
1023
757
447
268
161
97
59
566
1023
1023
1023
765
452
271
162
98
60
567
1023
1023
1023
771
455
272
163
98
60
558
1023
1023
1023
758
448
268
161
97
59
535
1015
1023
1023
728
430
258
155
93
57
503
996
1023
1023
696
412
246
148
89
55
477
980
1023
1023
669
396
237
142
86
53
473
978
1023
1023
683
404
242
145
87
54
485
985
1023
1023
706
417
250
150
90
55
492
990
1023
1023
727
429
257
154
93
57
510
1000
1023
1023
751
443
266
159
96
59
520
1006
1023
1023
773
456
273
164
98
60
537
1016
1023
1023
802
472
283
170
102
62
554
1023
1023
1023
834
491
294
176
106
65
580
1023
1023
1023
873
513
307
184
111
67
585
1023
1023
1023
889
522
312
187
113
69
582
1023
1023
1023
900
528
316
189
114
73
618
1023
1023
1023
974
570
340
204
123
105
700
1023
1023
1023
1023
659
392
236
142
254
850
1023
1023
1023
1023
736
437
263
158
268
858
1023
1023
1023
1023
750
445
268
161
250
845
1023
1023
1023
1023
758
450
271
163
222
823
1023
1023
1023
1023
748
444
267
161
201
805
1023
1023
1023
1023
738
438
264
159
186
791
1023
1023
1023
1023
728
433
260
157
162
765
1023
1023
1023
1023
708
421
253
152
149
750
1023
1023
1023
1023
702
417
251
151
135
731
1023
1023
1023
1023
721
428
257
155
132
725
1023
1023
1023
1023
643
383
230
139
266
858
1023
1023
1023
1023
887
524
314
190
630
1023
1023
1023
1023
903
532
319
192
116
71
44
28
18
12
8
5
4
3
2
2
2
1
1
1
1
1
1
1
1
1
1
1
1
1
1
1
1
1
1
1
1
1
1
1
1
1
1
1
1
1
1
1
1
1
1
1
1
1
1
1
1
1
1
1
0
0
1
1
1
1
1
1
1
0
1
1
1
1
1
1
1
1
1
1
1
1
1
1
1
1
1
1
0
0
1
1
1
1
1
1
1
1
0
1
1
3
43
105
164
191
180
183
246
374
526
655
745
808
853
861
826
804
847
961
1023
1023
1023
1023
1023
1023
1023
1023
1023
1023
1023
1023
1023
1023
1023
1023
1023
1023
1023
1023
1023
1023
1023
1023
1023
1023
1023
1023
1023
1023
1023
1023
1023
1023
1023
1023
1023
1023
1023
1023
1023
1023
1023
1023
1023
1023
1023
1023
1023
1023
1023
1023
1023
1023
1023
1023
1023
1023
1023
1023
1023
1023
1023
1023
1023
1023
1023
1023
1023
1023
1023
1023
1023
1023
1023
1023
1023
1023
1023
1023
1023
1023
1023
1023
1023
1023
1023
1023
1023
1023
1023
1023
1023
1023
1023
1023
1023
1023
1023
1023
1023
1023
1023
1023
1023
1023
1023
1023
1023
1023
1023
1023
1023
1023
1023
1023
1023
1023
1023
1023
1023
1023
1023
1023
1023
1023
1023
1023
1023
1023
1023
1023
1023
1023
1023
1023
1023
1023
1023
1023
1023
1023
1023
1023
1023
1023
1023
1023
1023
1023
1023
1023
1023
1023
1023
1023
1023
1023
1023
1023
1023
1023
1023
1023
1023
1023
1023
1023
1023
1023
1023
1023
1023
1023
1023
1023
1023
1023
1023
1023
1023
1023
1023
1023
1023
1023
1023
1023
1023
1023
1023
1023
1023
1023
1023
1023
1023
1023
1023
1023
1023
1023
1023
1023
1023
1023
1023
1023
1023
1023
1023
1023
1023
1023
1023
1023
1023
1023
1023
1023
1023
1023
1023
1023
1023
1023
1023
1023
1023
1023
1023
1023
1023
1023
1023
1023
1023
1023
1023
1023
1023
1023
1023
1023
1023
1023
1023
1023
1023
1023
1023
1023
1023
1023
1023
1023
1023
1023
1023
1023
1023
1023
1023
1023
1023
1023
1023
1023
1023
1023
1023
1023
1023
1023
1023
1023
1023
1023
1023
1023
1023
1023
1023
1023
1023
1023
1023
1023
1023
1023
1023
1023
1023
1023
1023
1023
1023
1023
1023
1023
1023
1023
1023
1023
1023
1023
1023
1023
1023
1023
1023
1023
1023
1023
1023
1023
1023
1023
1023
1023
1023
1023
1023
1023
1023
1023
1023
1023
1023
1023
1023
1023
1023
1023
1023
1023
1023
1023
1023
1023
1023
1023
1023
1023
1023
1023
1023
1023
1023
1023
1023
1023
1023
1023
1023
1023
1023
1023
1023
1023
1023
1023
1023
1023
1023
1023
1023
1023
1023
1023
1023
1023
1023
1023
1023
1023
1023
1023
1023
1023
1023
1023
1023
1023
1023
985
977
1023
1023
1023
1023
1023
1023
1023
998
946
937
998
1023
1023
1023
1023
1023
1023
966
912
901
958
1023
1023
1023
1023
1023
1003
928
873
861
917
1023
1023
1023
1023
1023
966
893
839
826
878
980
1023
1023
1023
1014
931
858
802
786
836
938
1023
1023
1023
980
901
831
775
756
801
899
1001
1023
1022
948
866
795
742
725
769
865
964
1011
987
918
839
768
713
693
735
828
925
971
948
881
804
735
680
659
699
794
894
943
922
855
780
713
659
638
676
767
863
910
889
825
751
685
630
607
642
730
825
875
859
797
724
656
602
579
611
696
790
841
827
767
695
629
576
551
579
659
750
802
791
736
667
603
551
524
547
622
713
768
762
712
646
584
531
500
517
588
676
734
735
690
628
569
517
481
490
553
641
703
709
668
609
549
493
451
450
504
592
661
678
646
593
538
483
434
422
468
555
630
657
633
584
530
473
414
388
425
514
603
646
636
595
545
487
420
378
403
492
590
647
649
614
565
503
425
366
380
472
587
664
680
654
607
542
448
365
357
443
565
656
684
664
620
551
441
336
312
397
531
640
682
672
634
563
441
316
271
344
484
607
662
660
625
554
420
273
207
274
421
562
634
644
614
540
393
235
151
203
359
516
603
623
600
527
371
218
130
156
308
477
577
607
590
518
353
207
123
121
263
437
545
582
567
493
323
190
112
86
203
377
490
527
511
434
271
159
94
64
170
353
479
528
521
449
284
167
98
67
179
369
502
558
555
485
312
183
108
74
190
386
524
581
578
504
326
191
113
78
198
404
550
612
612
540
352
207
122
87
219
435
589
657
659
588
394
231
137
96
228
446
604
674
677
605
407
239
142
95
215
431
590
662
668
599
402
235
139
89
199
412
572
645
652
584
390
229
135
84
184
394
555
630
638
572
380
222
132
81
175
384
546
623
632
566
375
220
130
79
166
373
534
611
623
560
372
218
129
78
166
371
532
609
622
561
375
219
130
79
171
379
540
616
627
563
376
221
131
79
163
363
520
594
604
543
361
211
125
76
162
362
517
592
603
545
367
215
127
79
175
377
529
600
609
549
370
217
128
78
158
347
491
558
564
506
338
198
117
72
163
357
507
579
588
532
366
214
126
87
199
394
536
601
607
552
390
228
135
104
230
420
551
603
601
544
390
228
135
115
244
426
549
596
591
532
384
225
133
120
250
423
534
572
561
502
362
212
125
124
253
414
514
544
528
468
336
197
116
128
257
407
494
515
494
435
312
183
109
133
259
397
473
487
462
404
289
170
102
134
255
382
448
456
431
375
270
159
96
129
239
351
408
415
392
343
246
145
85
95
182
278
323
320
288
230
140
82
49
31
54
125
173
188
183
159
100
58
34
29
89
175
229
247
245
221
155
90
53
62
136
220
268
281
276
251
186
110
65
81
156
238
284
294
285
258
194
116
70
88
161
238
281
291
283
257
193
115
69
87
158
234
274
282
273
247
184
109
65
77
145
219
259
267
258
232
169
99
58
62
127
203
246
257
249
224
160
93
55
52
112
189
235
248
242
217
153
88
52
44
100
178
226
240
235
212
147
85
50
35
82
162
214
232
230
208
141
81
48
29
66
147
204
227
229
207
137
79
47
28
52
134
198
228
233
212
139
81
47
28
43
124
193
227
235
215
141
82
48
29
37
115
186
223
232
214
141
82
48
29
38
114
181
215
224
207
140
81
47
28
50
125
183
209
214
199
141
81
48
34
77
148
193
208
205
188
141
82
48
54
106
165
197
204
197
181
141
91
64
84
132
177
195
192
180
160
127
90
78
104
147
181
189
180
166
149
124
100
101
131
168
188
183
167
148
131
111
101
114
148
179
190
177
154
134
117
105
110
139
179
206
206
183
153
128
111
106
126
170
215
234
218
181
143
112
95
98
134
192
243
256
227
178
133
99
80
90
140
212
269
277
236
175
123
85
65
80
143
229
291
294
240
167
105
63
43
64
141
242
311
308
243
161
95
56
34
54
139
252
326
320
244
152
89
52
31
43
134
258
336
323
235
139
81
48
29
31
121
251
333
316
218
127
74
44
26
21
98
226
309
291
191
111
65
39
23
15
75
199
281
261
164
95
56
33
20
12
62
188
279
264
168
97
57
34
20
20
430
950
1023
1023
1023
1023
1023
1023
1023
1023
1023
1023
1023
1023
1023
1023
1023
1023
1023
1023
1023
738
443
317
826
1023
1023
1023
1023
1023
992
585
351
253
782
1023
1023
1023
1023
1023
981
579
347
270
811
1023
1023
1023
1023
1023
977
576
346
286
831
1023
1023
1023
1023
1023
974
575
345
284
829
1023
1023
1023
1023
1023
970
573
344
281
824
1023
1023
1023
1023
1023
966
570
343
279
822
1023
1023
1023
1023
1023
963
569
342
279
822
1023
1023
1023
1023
1023
961
567
341
272
813
1023
1023
1023
1023
1023
959
566
340
264
802
1023
1023
1023
1023
1023
957
565
340
259
795
1023
1023
1023
1023
1023
956
564
339
259
793
1023
1023
1023
1023
1023
956
564
339
257
790
1023
1023
1023
1023
1023
956
564
339
251
781
1023
1023
1023
1023
1023
958
565
340
242
762
1023
1023
1023
1023
1023
956
564
339
236
752
1023
1023
1023
1023
1023
954
563
338
232
742
1023
1023
1023
1023
1023
955
564
339
215
689
1023
1023
1023
1023
1023
984
580
348
210
333
894
1023
1023
1023
1023
1023
671
401
242
147
566
1023
1023
1023
1009
590
353
212
128
90
616
1023
1023
1023
968
568
339
204
123
75
438
957
1023
1023
853
502
301
181
109
67
86
672
1023
1023
727
428
256
154
93
57
35
22
14
9
6
5
3
3
2
4
521
1004
1023
1023
891
524
314
188
114
69
228
321
184
107
64
39
24
15
10
7
5
3
3
2
2
2
1
1
1
1
1
1
1
1
1
1
1
1
1
1
1
1
1
1
1
1
1
1
1
1
1
1
1
1
1
1
1
0
1
1
1
1
1
1
1
1
1
1
1
1
0
1
1
1
1
1
1
1
1
1
0
1
1
1
1
1
1
1
1
1
1
1
1
1
1
1
1
1
1
1
1
1
1
1
1
1
1
1
1
1
1
0
1
1
1
1
1
1
1
0
1
1
1
1
1
1
0
1
1
1
1
1
1
1
1
1
1
1
1
1
1
0
1
1
0
1
0
1
1
0
1
0
1
1
1
1
0
1
1
1
1
0
0
1
1
1
1
1
1
1
0
0
1
1
1
1
0
19
11
6
4
2
2
1
1
1
97
334
337
194
113
67
40
24
15
27
326
677
715
454
267
158
94
57
35
144
586
993
1023
752
440
262
157
94
65
326
831
1023
1023
1023
646
383
229
138
172
541
1010
1023
1023
1023
899
605
414
322
413
799
1023
1023
1023
1023
1023
925
756
681
782
1023
1023
1023
1023
1023
1023
1023
1023
1023
1023
1023
1023
1023
1023
1023
1023
1023
1023
1023
1023
1023
1023
1023
1023
1023
1023
1023
1023
1023
1023
1023
1023
1023
1023
1023
1023
1023
1023
1023
1023
1023
1023
1023
1023
1023
1023
1023
1023
1023
1023
1023
1023
1023
1023
1023
1023
1023
1023
1023
1023
1023
1023
1023
1023
1023
1023
1023
1023
1023
1023
1023
1023
1023
1023
1023
1023
1023
1023
1023
1023
1023
1023
1023
1023
1023
1023
1023
1023
1023
1023
1023
1023
1023
1023
1023
1023
1023
1023
936
955
1023
1023
1023
1023
1023
1023
1023
851
729
743
999
1023
1023
1023
1023
1023
843
650
536
553
808
1023
1023
1023
1023
987
725
543
439
462
715
1023
1023
1023
1023
908
657
482
378
396
621
968
1023
1023
1023
738
492
324
226
240
445
758
1000
1019
831
580
377
245
179
216
422
727
964
997
840
622
447
335
280
319
517
807
1023
1023
931
722
549
434
371
393
561
820
1023
1023
904
700
528
410
339
346
487
713
891
908
773
586
432
328
270
284
429
653
835
867
752
582
441
350
306
332
478
696
868
891
772
600
460
370
327
356
502
720
898
938
842
697
586
524
504
555
729
975
1023
1023
1023
835
677
573
518
538
687
906
1023
1023
914
710
547
441
387
410
568
806
990
1006
860
663
507
409
362
397
575
839
1023
1023
903
685
517
430
423
527
811
1023
1023
1023
1023
1023
1023
977
968
1023
1023
1023
1023
1023
1023
1023
1023
1023
1023
1023
1023
1023
1023
1023
1023
1023
1023
1023
1023
1023
1023
1023
1023
1023
1023
1023
1023
1023
1023
1023
1023
1023
1023
1023
1023
1023
1023
1023
1023
1023
1023
1023
1023
1023
1023
1023
1023
1023
1023
1023
1023
1023
1023
1023
1023
1023
1023
1023
1023
1023
1023
1023
1023
1023
1023
1023
1023
897
775
735
854
1023
1023
1023
1023
789
576
423
321
294
414
637
824
845
695
470
282
170
104
64
133
338
528
563
429
253
149
89
54
33
55
233
426
472
352
204
120
72
43
26
35
190
371
408
280
163
96
57
34
21
15
126
290
322
206
120
70
42
25
16
10
61
188
205
121
70
41
24
15
9
6
44
163
180
106
61
36
21
13
8
5
50
174
191
112
65
38
23
14
8
6
75
222
249
151
87
51
30
18
11
10
142
326
363
237
138
81
48
29
17
34
222
435
476
329
191
113
67
40
24
67
298
529
572
410
238
141
84
50
31
110
384
635
673
492
288
170
101
61
39
180
496
766
807
616
367
217
130
78
60
243
586
868
905
698
420
249
149
89
80
298
675
983
1023
805
495
294
176
106
123
390
813
1023
1023
955
605
359
215
129
164
466
930
1023
1023
1023
744
443
266
162
199
526
992
1023
1023
1023
807
478
287
173
175
506
985
1023
1023
1023
800
473
284
171
128
425
931
1023
1023
1023
755
447
269
162
98
302
838
1023
1023
1023
675
401
240
145
88
204
763
1023
1023
1023
680
404
242
146
88
140
690
1023
1023
1009
587
349
209
126
77
64
531
1011
1023
813
476
284
170
102
62
39
307
856
943
564
332
198
118
72
44
27
130
536
688
1023
1023
1023
1023
1023
1023
1023
1023
1023
1023
1023
1023
1023
1023
1023
1023
1023
1023
1023
1023
1023
1023
1023
1023
1023
1023
1023
1023
1023
1023
1023
1023
1023
1023
1023
1023
1023
1023
1023
1023
1023
1023
1023
1023
1023
1023
1023
1023
1023
1023
1023
1023
1023
1023
1023
1023
1023
1023
1023
1023
1023
1023
1023
1023
1023
1023
1023
1023
1023
1023
1023
1023
1023
1023
1023
1023
1023
1023
1023
1023
1023
1023
1023
1023
1023
1023
1023
1023
1023
1023
1023
1023
1023
1023
1023
1023
1023
1023
1023
1023
1023
1023
1023
1023
1023
1023
1023
1023
1023
1023
1023
1023
1023
1023
1023
1023
1023
1023
1023
1023
1023
1023
1023
1023
1023
1023
1023
1023
1023
1023
1023
1023
1023
1023
1023
1023
1023
1023
1023
1023
1023
1023
1023
1023
1023
1023
1023
1023
1023
1023
1023
1023
1023
1023
1023
1023
1023
1023
1023
1023
1023
1023
1023
1023
1023
1023
1023
1023
618
628
1023
1023
1023
1023
1023
1023
1023
784
468
284
535
1020
1023
1023
1023
1023
1023
602
361
219
134
491
990
1023
1023
979
574
343
207
125
77
245
799
546
320
189
113
69
42
27
17
11
8
5
4
3
2
2
2
1
1
1
1
1
1
1
1
1
1
1
1
1
1
1
1
1
1
1
1
1
1
188
795
1023
694
407
243
145
88
54
33
309
880
1023
1023
1023
913
538
323
195
155
700
1023
1023
1023
1023
1023
650
389
235
187
728
1023
1023
1023
1023
1023
632
379
229
139
569
1023
1023
1023
1023
1013
595
356
215
130
459
971
1023
1023
1023
941
554
333
200
121
419
947
1023
1023
1023
875
517
310
187
113
395
933
1023
1023
1023
898
529
318
191
116
429
953
1023
1023
1023
1023
645
386
232
190
735
1023
1023
1023
1023
1023
745
444
268
493
994
1023
1023
1023
1023
1023
891
528
354
819
1023
1023
1023
1023
1023
1023
1023
641
763
1023
1023
1023
1023
1023
1023
1023
1023
1023
1023
1023
1023
1023
1023
1023
1023
1023
1023
1023
1023
1023
1023
1023
1023
962
571
344
209
516
1007
1023
821
482
288
174
106
65
41
363
753
443
261
155
93
56
35
22
14
365
481
278
163
96
58
35
22
14
9
396
429
248
146
86
52
31
19
12
8
396
392
226
133
79
47
29
17
11
7
310
253
146
86
51
30
18
11
7
5
191
127
73
43
25
15
9
6
4
3
46
26
15
9
5
3
2
2
1
1
1
1
1
1
1
1
1
1
1
1
1
1
1
1
1
1
1
1
1
1
1
1
1
1
1
1
1
1
1
1
1
1
1
1
1
1
1
1
1
1
1
0
1
1
1
1
1
1
1
1
1
1
1
1
1
1
1
1
1
1
1
1
1
1
1
1
1
1
1
1
1
1
1
1
0
1
1
1
1
1
1
1
0
1
1
1
1
1
0
1
1
1
1
1
1
1
1
1
0
0
1
1
0
1
1
0
1
1
1
1
1
1
0
1
1
1
1
1
1
1
1
1
0
1
1
1
0
1
1
1
1
0
1
1
0
0
1
1
1
1
1
1
1
1
0
1
1
1
1
1
0
1
0
1
0
1
1
1
1
1
1
1
0
1
1
1
1
1
1
1
0
0
1
1
0
0
0
1
1
1
1
0
1
0
1
0
1
1
0
1
1
1
1
1
1
1
1
1
0
1
0
1
1
1
0
0
0
1
1
1
0
1
1
1
1
1
1
1
1
1
1
1
1
1
1
1
1
1
1
1
1
0
1
1
1
1
1
1
1
1
1
1
1
0
1
1
1
0
0
0
1
1
0
1
1
1
1
1
1
1
1
1
1
0
1
1
1
1
0
1
1
1
1
1
1
1
1
0
1
1
0
0
0
1
0
0
0
0
0
1
1
1
0
1
0
1
1
1
1
1
1
0
1
1
1
1
1
1
1
0
1
0
1
1
1
1
0
1
0
1
1
1
1
1
1
1
1
1
1
1
0
1
1
1
1
1
0
1
1
0
0
1
1
1
1
0
1
1
1
0
0
1
0
1
1
1
1
1
0
1
1
1
1
1
0
1
0
1
0
1
1
0
1
1
0
1
1
1
0
1
1
1
0
1
1
1
0
1
1
1
0
0
1
1
1
0
1
1
1
1
0
0
1
1
1
1
0
1
1
1
1
0
1
0
0
1
1
1
0
0
0
0
0
0
1
1
1
1
1
1
0
0
1
1
1
1
0
0
1
1
0
1
1
1
1
1
1
0
1
0
0
1
0
1
0
1
0
1
1
1
1
1
1
1
0
1
0
1
0
1
1
0
1
1
0
1
0
1
1
1
1
1
1
1
1
1
1
1
1
0
1
1
0
1
1
0
1
1
1
1
0
1
1
0
1
0
1
1
1
0
1
1
1
1
1
1
1
0
1
1
1
1
0
1
0
1
1
1
0
0
1
1
0
1
1
1
0
0
1
1
0
0
1
1
1
1
1
1
0
0
1
1
1
1
0
1
1
1
0
0
0
0
0
1
1
0
1
1
0
0
1
1
0
0
0
0
1
1
1
1
0
1
1
1
1
1
1
0
1
1
1
1
0
0
1
1
0
0
1
1
0
1
0
1
1
0
0
0
1
0
1
1
1
0
1
1
1
0
1
0
1
0
0
0
1
1
1
0
0
1
1
0
1
1
1
1
1
0
0
1
0
0
1
1
1
0
1
1
0
0
1
1
1
0
1
0
0
1
0
1
1
1
17
617
1023
1023
1023
1023
1023
1023
1023
668
484
974
1023
1023
1023
1023
1023
1023
1023
861
591
1023
1023
1023
1023
1023
1023
1023
1023
642
391
818
1023
1023
1023
1023
1023
691
413
250
152
493
991
1023
1023
949
558
334
201
121
74
46
29
19
12
8
5
4
3
2
2
2
1
1
1
1
1
1
1
1
1
1
1
1
1
1
1
1
1
1
1
1
1
1
1
1
1
1
1
1
1
1
1
1
1
1
1
1
1
1
1
46
614
1023
1023
717
422
252
151
91
56
34
22
14
9
6
4
3
2
2
1
1
1
1
1
1
1
1
1
1
1
1
1
1
1
1
1
1
1
1
1
1
1
1
1
1
1
1
1
1
1
1
1
1
1
1
1
1
1
1
1
1
1
1
1
1
1
1
1
0
1
0
1
1
1
1
1
1
1
1
0
0
1
1
1
1
1
1
1
0
0
0
1
1
1
1
0
1
1
1
1
1
0
1
1
1
1
1
1
1
1
0
0
1
1
1
1
1
1
1
1
0
1
1
1
1
1
1
1
1
1
1
1
1
1
1
1
1
1
1
1
1
1
1
1
1
1
1
1
1
1
1
1
1
4
4
3
2
1
1
1
1
3
20
40
41
25
14
8
5
3
2
17
46
67
66
41
23
14
8
5
4
29
67
98
107
78
46
27
15
9
39
126
216
290
331
282
187
111
65
48
156
335
490
603
666
599
422
261
155
135
278
478
643
750
800
707
496
307
183
153
298
509
688
805
859
767
543
338
202
190
364
595
782
901
953
854
610
382
229
217
398
635
825
947
1002
902
648
406
244
235
425
671
866
992
1023
951
687
431
260
257
455
707
903
1023
1023
976
704
440
264
250
440
687
878
995
1023
923
654
404
241
207
373
601
778
882
914
788
543
330
196
138
248
430
572
648
654
528
346
206
122
74
92
175
240
262
229
155
91
54
33
21
13
9
6
4
3
2
2
2
1
1
1
1
1
1
1
1
1
1
1
1
12
42
73
101
115
93
64
42
28
26
130
310
471
582
632
548
382
241
149
104
180
313
411
451
432
336
225
143
91
62
50
62
77
74
65
61
51
42
36
47
621
1023
1023
1023
1023
1023
1023
1023
1023
778
1023
1023
1023
1023
1023
1023
1023
863
521
314
191
116
71
44
28
18
12
8
5
4
3
2
2
2
2
1
1
1
1
1
1
1
1
1
1
1
1
1
1
1
1
1
1
1
1
1
1
1
1
1
1
1
1
1
39
77
64
40
23
19
162
333
347
278
343
400
312
201
121
117
376
692
837
853
933
920
681
435
263
250
574
966
1023
1023
1023
1023
923
589
356
351
738
1023
1023
1023
1023
1023
1023
742
448
436
852
1023
1023
1023
1023
1023
1023
865
524
491
905
1023
1023
1023
1023
1023
1023
892
538
484
895
1023
1023
1023
1023
1023
1023
912
547
482
896
1023
1023
1023
1023
1023
1023
908
542
449
853
1023
1023
1023
1023
1023
1023
886
528
420
820
1023
1023
1023
1023
1023
1023
850
505
383
772
1023
1023
1023
1023
1023
1023
838
497
385
792
1023
1023
1023
1023
1023
1023
890
528
430
861
1023
1023
1023
1023
1023
1023
988
586
506
944
1023
1023
1023
1023
1023
1023
1023
636
572
1004
1023
1023
1023
1023
1023
1023
1023
689
665
1023
1023
1023
1023
1023
1023
1023
1023
778
804
1023
1023
1023
1023
1023
1023
1023
1023
857
908
1023
1023
1023
1023
1023
1023
1023
1023
887
957
1023
1023
1023
1023
1023
1023
1023
1023
914
1019
1023
1023
1023
1023
1023
1023
1023
1023
987
1023
1023
1023
1023
1023
1023
1023
1023
1023
1023
1023
1023
1023
1023
1023
1023
1023
1023
1023
1023
1023
1023
1023
1023
1023
1023
1023
1023
1023
1023
1023
1023
1023
1023
1023
1023
1023
1023
1023
1023
1023
1023
1023
1023
1023
1023
1023
1023
1023
1023
1023
1023
1023
1023
1023
1023
1023
1023
1023
1023
1023
1023
1023
1023
1023
1023
1023
1023
1023
1023
1023
1023
1023
1023
1023
1023
1023
1023
1023
693
622
992
1023
1023
1023
1023
1023
1023
733
439
267
455
972
1023
1023
1023
1023
1023
740
442
267
448
967
1023
1023
1023
1023
1023
743
443
268
444
965
1023
1023
1023
1023
1023
763
455
275
461
975
1023
1023
1023
1023
1023
781
465
281
461
976
1023
1023
1023
1023
1023
792
472
285
464
977
1023
1023
1023
1023
1023
806
479
290
465
978
1023
1023
1023
1023
1023
812
483
292
459
975
1023
1023
1023
1023
1023
815
484
292
456
973
1023
1023
1023
1023
1023
819
487
294
452
971
1023
1023
1023
1023
1023
821
488
295
452
971
1023
1023
1023
1023
1023
827
491
297
449
969
1023
1023
1023
1023
1023
828
492
297
446
967
1023
1023
1023
1023
1023
831
494
298
442
965
1023
1023
1023
1023
1023
829
492
297
435
961
1023
1023
1023
1023
1023
830
493
298
431
959
1023
1023
1023
1023
1023
828
492
297
426
956
1023
1023
1023
1023
1023
824
490
295
403
942
1023
1023
1023
1023
1023
818
486
293
390
934
1023
1023
1023
1023
1023
816
485
293
399
939
1023
1023
1023
1023
1023
814
484
292
411
946
1023
1023
1023
1023
1023
813
483
292
399
939
1023
1023
1023
1023
1023
810
482
291
394
936
1023
1023
1023
1023
1023
808
480
290
397
938
1023
1023
1023
1023
1023
804
478
289
396
937
1023
1023
1023
1023
1023
802
477
288
392
935
1023
1023
1023
1023
1023
801
476
288
395
937
1023
1023
1023
1023
1023
802
477
288
418
951
1023
1023
1023
1023
1023
827
491
296
446
967
1023
1023
1023
1023
1023
836
496
300
538
1021
1023
1023
1023
1023
1023
844
501
302
553
1023
1023
1023
1023
1023
1023
833
495
348
855
1023
1023
1023
1023
1023
1023
756
451
661
1023
1023
1023
1023
1023
1023
1023
730
436
678
1023
1023
1023
1023
1023
1023
1023
718
429
666
1023
1023
1023
1023
1023
1023
1023
696
416
644
1023
1023
1023
1023
1023
1023
1023
669
401
618
1023
1023
1023
1023
1023
1023
1023
673
403
610
1023
1023
1023
1023
1023
1023
1023
661
396
595
1023
1023
1023
1023
1023
1023
1023
653
391
579
1023
1023
1023
1023
1023
1023
1023
648
389
566
1023
1023
1023
1023
1023
1023
1023
639
383
550
1023
1023
1023
1023
1023
1023
1023
635
381
539
1023
1023
1023
1023
1023
1023
1023
638
383
529
1018
1023
1023
1023
1023
1023
1023
631
379
514
1009
1023
1023
1023
1023
1023
1023
621
372
500
1001
1023
1023
1023
1023
1023
1023
612
367
488
993
1023
1023
1023
1023
1023
1023
608
365
473
984
1023
1023
1023
1023
1023
1015
598
359
460
976
1023
1023
1023
1023
1023
1000
589
354
447
967
1023
1023
1023
1023
1023
994
586
352
435
959
1023
1023
1023
1023
1023
982
580
348
424
952
1023
1023
1023
1023
1023
974
575
345
411
942
1023
1023
1023
1023
1023
968
572
344
402
935
1023
1023
1023
1023
1023
963
569
342
393
928
1023
1023
1023
1023
1023
955
564
339
383
921
1023
1023
1023
1023
1023
948
560
337
373
912
1023
1023
1023
1023
1023
943
557
335
364
905
1023
1023
1023
1023
1023
938
554
334
356
898
1023
1023
1023
1023
1023
933
552
332
349
892
1023
1023
1023
1023
1023
927
548
330
342
885
1023
1023
1023
1023
1023
920
544
327
334
879
1023
1023
1023
1023
1023
915
541
326
328
873
1023
1023
1023
1023
1023
912
540
325
320
865
1023
1023
1023
1023
1023
906
536
323
312
857
1023
1023
1023
1023
1023
901
533
321
305
849
1023
1023
1023
1023
1023
901
533
321
300
843
1023
1023
1023
1023
1023
904
535
322
295
837
1023
1023
1023
1023
1023
897
531
320
284
824
1023
1023
1023
1023
1023
963
569
342
207
479
985
1023
1023
1023
1023
1023
650
389
235
200
747
1023
1023
1023
1023
1023
626
375
226
156
661
1023
1023
1023
1023
1023
616
369
223
152
655
1023
1023
1023
1023
1023
613
367
222
150
648
1023
1023
1023
1023
1023
613
367
222
148
643
1023
1023
1023
1023
1023
613
367
222
147
640
1023
1023
1023
1023
1023
614
368
222
147
636
1023
1023
1023
1023
1023
617
369
223
146
633
1023
1023
1023
1023
1023
615
368
222
144
626
1023
1023
1023
1023
1023
613
367
222
143
623
1023
1023
1023
1023
1023
613
367
222
142
617
1023
1023
1023
1023
1023
624
374
226
144
613
1023
1023
1023
1023
1023
636
380
230
146
614
1023
1023
1023
1023
1023
635
380
230
146
614
1023
1023
1023
1023
1023
631
378
228
143
601
1023
1023
1023
1023
1023
628
376
227
141
595
1023
1023
1023
1023
1023
622
373
225
141
597
1023
1023
1023
1023
1023
619
370
224
141
601
1023
1023
1023
1023
1023
603
361
218
137
599
1023
1023
1023
1023
1023
601
360
217
135
591
1023
1023
1023
1023
1022
600
359
217
135
590
1023
1023
1023
1023
1020
599
359
217
134
587
1023
1023
1023
1023
1018
597
358
216
133
582
1023
1023
1023
1023
1013
595
356
215
133
584
1023
1023
1023
1023
1008
592
355
214
132
578
1023
1023
1023
1023
1008
592
355
214
132
574
1023
1023
1023
1023
1007
591
354
214
131
574
1023
1023
1023
1023
1006
591
354
214
135
599
1023
1023
1023
1023
1013
595
356
215
137
608
1023
1023
1023
1023
1015
596
357
215
135
598
1023
1023
1023
1023
1017
597
358
216
135
593
1023
1023
1023
1023
1016
597
357
216
136
598
1023
1023
1023
1023
1017
597
358
216
135
595
1023
1023
1023
1023
1017
597
358
216
134
588
1023
1023
1023
1023
1016
596
357
216
134
586
1023
1023
1023
1023
1015
596
357
215
134
591
1023
1023
1023
1023
1015
596
357
216
133
579
1023
1023
1023
1023
1014
595
357
215
132
571
1023
1023
1023
1023
1013
595
356
215
132
573
1023
1023
1023
1023
1014
595
357
215
133
579
1023
1023
1023
1023
1019
598
358
216
133
578
1023
1023
1023
1023
1023
601
360
217
132
563
1023
1023
1023
1023
1023
601
360
217
132
557
1023
1023
1023
1023
1021
599
359
216
132
560
1023
1023
1023
1023
1023
601
360
217
132
561
1023
1023
1023
1023
1023
604
361
218
133
560
1023
1023
1023
1023
1023
605
362
219
133
554
1023
1023
1023
1023
1023
602
360
217
132
550
1023
1023
1023
1023
1019
598
358
216
131
549
1023
1023
1023
1023
1014
595
357
215
130
538
1018
1023
1023
1023
1010
593
355
214
130
519
1006
1023
1023
1023
1002
589
352
213
129
526
1010
1023
1023
1023
997
586
351
212
128
525
1010
1023
1023
1023
992
583
349
211
128
506
999
1023
1023
1023
987
580
348
210
127
513
1003
1023
1023
1023
984
578
347
209
127
516
1005
1023
1023
1023
980
576
345
208
126
504
998
1023
1023
1023
974
573
343
207
126
506
999
1023
1023
1023
972
572
343
207
125
514
1003
1023
1023
1023
973
572
343
207
125
503
997
1023
1023
1023
975
573
344
207
126
505
998
1023
1023
1023
979
575
345
208
126
515
1004
1023
1023
1023
983
578
346
209
127
521
1007
1023
1023
1023
990
582
349
210
127
513
1002
1023
1023
1023
995
585
350
211
128
522
1008
1023
1023
1023
1007
591
354
214
130
551
1023
1023
1023
1023
1023
630
377
228
225
785
1023
1023
1023
1023
1023
763
454
274
570
1023
1023
1023
1023
1023
1023
902
534
336
760
1023
1023
1023
1023
1023
1023
920
545
355
799
1023
1023
1023
1023
1023
1023
884
524
318
685
1023
1023
1023
1023
1023
1023
882
523
316
663
1023
1023
1023
1023
1023
1023
839
498
301
599
1023
1023
1023
1023
1023
1023
846
502
303
608
1023
1023
1023
1023
1023
1023
810
481
290
510
1005
1023
1023
1023
1023
1023
764
455
275
477
985
1023
1023
1023
1023
1023
872
517
340
784
1023
1023
1023
1023
1023
1023
1023
687
888
1023
1023
1023
1023
1023
1023
1023
1023
1023
1023
1023
1023
1023
1023
1023
1023
1023
1023
1023
1023
1023
1023
1023
1023
1023
1023
1023
1023
1023
1023
1023
1023
1023
1023
1023
1023
1023
1023
1023
1023
1023
1023
1023
1023
1023
1023
1023
1023
1023
1023
1023
1023
1023
1023
1023
1023
1023
1023
1023
1023
1023
1023
1023
1023
1023
1023
1023
1023
1023
1023
1023
1023
1023
1023
1023
1023
1023
1023
1023
1023
1023
1023
1023
1023
1023
1023
1023
1023
1023
1023
1023
1023
1023
1023
1023
1023
1023
1023
1023
1023
1023
1023
1023
1023
1023
1023
1023
1023
1023
1023
1023
1023
1023
1023
1023
1023
1023
1023
1023
1023
1023
1023
1023
955
567
343
333
836
1023
1023
1023
775
460
277
168
103
83
555
1023
1023
1023
634
377
227
137
84
52
386
924
1023
642
379
227
136
82
51
32
260
836
879
506
300
179
108
65
40
25
184
773
784
453
269
160
96
59
36
23
164
756
756
437
259
155
93
56
35
22
151
745
732
424
251
150
90
55
34
21
138
735
718
416
246
147
88
54
33
21
127
725
697
404
239
142
85
52
32
20
124
724
689
400
236
141
84
51
32
20
135
738
727
421
249
148
89
54
33
21
151
756
778
449
266
158
95
58
35
22
165
770
818
471
279
166
100
61
37
23
167
774
832
479
284
169
101
62
38
24
169
776
844
486
288
171
103
62
38
24
180
787
873
502
297
177
106
64
40
25
202
806
915
526
311
185
111
67
41
26
225
824
939
540
319
190
114
69
42
26
262
850
956
550
325
194
116
70
43
27
306
878
978
563
333
199
119
72
44
27
330
892
994
573
339
202
121
73
45
28
328
891
1006
581
343
205
123
74
45
28
339
897
1018
589
348
207
124
75
46
29
343
900
1023
596
352
210
126
76
47
29
339
898
1023
604
356
213
128
77
47
29
321
887
1023
610
360
215
129
78
48
30
304
877
1023
617
364
217
130
79
48
30
281
863
1023
621
366
219
131
79
48
30
247
842
1023
606
357
213
128
77
47
29
224
826
990
577
340
203
121
73
45
28
191
802
908
523
309
184
110
67
41
25
156
774
817
471
278
166
99
60
37
23
117
737
696
403
238
142
85
52
32
20
73
668
538
313
185
110
66
40
25
15
29
454
313
181
107
64
38
23
14
9
6
4
3
2
2
1
1
1
1
1
1
1
1
1
1
1
1
1
1
1
1
1
1
1
1
1
1
1
1
1
1
1
1
1
1
1
1
1
1
1
1
1
1
1
1
1
1
1
1
1
1
1
0
1
0
1
1
1
1
1
1
1
1
1
1
1
1
1
1
1
0
1
1
1
1
1
0
1
1
1
1
0
1
1
1
1
1
1
1
0
1
0
1
1
1
1
1
1
0
1
1
1
1
1
1
1
0
1
1
1
1
1
1
1
1
1
0
1
1
0
1
1
0
0
1
0
1
1
1
1
1
1
1
1
0
1
1
1
1
1
0
1
1
0
0
1
1
1
1
1
0
0
0
1
1
1
1
1
1
0
1
1
0
1
1
0
1
1
0
1
0
0
1
1
1
1
1
1
1
1
1
1
1
0
0
1
0
0
1
1
1
0
1
1
1
0
1
1
1
0
1
1
1
0
1
1
0
1
1
1
1
0
0
1
0
1
0
0
0
1
0
1
0
1
1
1
1
1
1
1
1
1
0
1
1
1
0
1
1
1
1
0
1
1
1
0
1
0
0
1
1
0
1
0
1
1
1
1
1
1
1
0
1
1
1
1
1
0
1
1
1
1
0
1
1
1
1
0
1
0
1
1
1
1
1
0
1
1
0
0
0
1
1
1
0
0
1
1
1
1
1
1
1
1
1
1
1
1
1
1
1
0
1
1
0
1
0
1
1
1
1
1
1
1
1
0
1
0
1
1
1
1
1
1
0
1
1
1
0
0
1
0
1
1
0
1
1
0
1
1
1
1
1
0
1
0
1
1
1
1
1
1
0
0
1
0
1
0
0
1
0
1
1
1
1
0
0
1
0
1
1
1
1
1
1
1
1
0
1
0
1
1
1
0
0
1
1
1
0
1
1
1
1
0
1
1
1
1
1
1
1
1
1
0
1
1
1
0
1
1
1
1
1
1
0
1
1
0
0
1
1
0
1
1
0
1
0
1
1
1
0
0
0
0
1
1
0
1
1
0
0
0
0
1
1
0
0
0
1
0
0
1
1
0
1
1
1
0
1
1
1
0
1
1
1
0
1
1
0
1
1
1
0
1
0
0
0
1
0
0
0
0
1
0
0
1
1
0
0
1
1
1
1
0
1
1
0
0
1
1
1
0
1
1
1
1
0
0
1
0
1
0
1
0
1
1
0
1
0
0
1
1
1
0
1
1
1
1
0
1
1
1
1
1
1
1
0
1
1
1
1
0
1
0
0
1
1
1
0
1
1
0
0
1
0
1
1
0
0
0
1
1
1
1
0
1
1
1
1
0
0
1
0
1
0
0
1
4
3
2
1
1
1
1
1
1
46
122
109
62
36
21
12
7
5
52
158
262
245
145
84
50
29
18
23
121
261
382
364
225
131
78
46
28
46
175
335
469
456
293
171
101
61
36
63
207
381
527
520
343
201
119
71
43
72
224
407
560
559
376
220
130
78
47
76
231
417
574
577
393
229
136
81
49
75
226
411
569
578
396
231
137
82
49
70
212
393
551
563
388
227
134
80
48
63
197
372
528
541
372
217
129
77
46
57
185
356
509
524
360
210
124
74
45
55
178
346
499
515
356
208
123
73
44
51
167
331
481
498
345
202
119
71
43
50
166
328
476
492
342
200
118
70
42
53
172
334
480
493
343
200
118
70
42
55
173
332
474
484
336
197
116
69
42
55
171
325
463
470
325
190
112
67
40
54
165
309
437
435
297
173
102
61
36
54
163
298
414
402
269
157
93
55
33
41
119
208
288
268
169
98
58
34
21
13
43
114
184
171
104
61
35
21
13
8
9
49
104
98
58
34
20
12
7
5
3
5
26
24
14
8
5
3
2
2
1
1
1
1
1
1
1
1
1
1
1
1
1
1
1
1
1
1
1
1
1
1
1
1
1
1
1
1
1
1
1
1
1
1
1
1
1
1
1
1
2
3
4
5
6
7
8
9
10
11
12
13
14
15
16
17
18
19
20
20
22
22
23
25
25
26
27
28
29
30
31
32
33
34
35
36
37
38
39
40
41
42
43
44
45
46
46
47
48
49
50
51
52
53
54
55
55
56
57
58
59
60
61
62
63
64
64
65
66
67
68
69
70
71
72
72
73
74
75
76
77
77
78
79
80
81
82
83
83
84
85
86
87
88
88
89
90
91
92
93
93
94
95
96
97
98
98
99
100
101
102
102
103
104
105
106
107
107
108
109
110
111
111
112
113
114
159
385
765
1023
1023
1023
1023
1023
1023
1023
1023
799
521
346
289
832
1023
1023
1023
1023
876
566
365
243
172
483
985
1023
1023
858
556
355
233
161
173
754
1023
1023
1023
1023
735
473
303
198
136
99
79
153
370
621
820
909
878
710
491
320
214
294
538
823
1023
1023
1023
1015
680
429
276
432
888
1023
1023
1023
1023
1023
985
624
404
662
1023
1023
1023
1023
1023
1023
1023
866
861
1023
1023
1023
1023
1023
1023
1023
1023
1023
1023
1023
1023
1023
1023
1023
1023
1023
1023
1023
917
1023
1023
1023
1023
1023
1023
1023
1023
1023
886
950
1023
1023
1023
1023
1023
1023
1023
1023
903
924
1023
1023
1023
1023
1023
1023
1023
1023
961
955
1023
1023
1023
1023
1023
1023
1023
1023
1004
1015
1023
1023
1023
1023
1023
1023
1023
1023
1023
1023
1023
1023
1023
1023
1023
1023
1023
1023
1023
1023
1023
1023
1023
1023
1023
1023
1023
1023
1023
1023
1023
1023
1023
1023
1023
1023
1023
1023
1023
1023
1023
1023
1023
977
1023
1023
1023
1023
1023
1023
1023
1023
1023
937
1023
1023
1023
1023
1023
1023
1023
1023
1023
902
1023
1023
1023
1023
1023
1023
1023
1023
991
863
1023
1023
1023
1023
1023
1023
1023
1023
957
827
1023
1023
1023
1023
1023
1023
1023
1023
927
794
1023
1023
1023
1023
1023
1023
1023
1023
899
763
1023
1023
1023
1023
1023
1023
1023
1023
874
736
1023
1023
1023
1023
1023
1023
1023
1023
851
710
1023
1023
1023
1023
1023
1023
1023
1023
830
685
1023
1023
1023
1023
1023
1023
1023
1023
809
659
1023
1023
1023
1023
1023
1023
1023
1023
789
634
1023
1023
1023
1023
1023
1023
1023
1023
770
610
1023
1023
1023
1023
1023
1023
1023
1023
753
589
1023
1023
1023
1023
1023
1023
1023
1023
736
569
1023
1023
1023
1023
1023
1023
1023
1023
721
552
1023
1023
1023
1023
1023
1023
1023
1023
706
535
1011
1023
1023
1023
1023
1023
1023
1023
692
518
997
1023
1023
1023
1023
1023
1023
1023
679
501
983
1023
1023
1023
1023
1023
1023
1023
664
483
967
1023
1023
1023
1023
1023
1023
1023
654
470
955
1023
1023
1023
1023
1023
1023
1023
644
456
941
1023
1023
1023
1023
1023
1023
1023
633
442
926
1023
1023
1023
1023
1023
1023
1023
622
429
912
1023
1023
1023
1023
1023
1023
1023
615
419
900
1023
1023
1023
1023
1023
1023
1023
606
408
887
1023
1023
1023
1023
1023
1023
1014
598
397
873
1023
1023
1023
1023
1023
1023
1000
590
387
860
1023
1023
1023
1023
1023
1023
988
583
379
848
1023
1023
1023
1023
1023
1023
971
574
370
836
1023
1023
1023
1023
1023
1023
950
562
357
816
1023
1023
1023
1023
1023
1023
946
559
352
804
1023
1023
1023
1023
1023
1023
940
556
347
792
1023
1023
1023
1023
1023
1023
927
549
340
777
1023
1023
1023
1023
1023
1023
918
544
334
763
1023
1023
1023
1023
1023
1023
912
540
330
750
1023
1023
1023
1023
1023
1023
909
539
328
742
1023
1023
1023
1023
1023
1023
865
514
312
717
1023
1023
1023
1023
1023
1023
816
485
294
691
1023
1023
1023
1023
1023
1023
882
523
316
705
1023
1023
1023
1023
1023
1023
874
519
313
690
1023
1023
1023
1023
1023
1023
836
496
300
668
1023
1023
1023
1023
1023
1023
848
504
304
661
1023
1023
1023
1023
1023
1023
846
502
303
650
1023
1023
1023
1023
1023
1023
832
494
299
635
1023
1023
1023
1023
1023
1023
833
495
299
627
1023
1023
1023
1023
1023
1023
824
490
296
614
1023
1023
1023
1023
1023
1023
819
487
294
604
1023
1023
1023
1023
1023
1023
816
485
293
594
1023
1023
1023
1023
1023
1023
811
483
291
582
1023
1023
1023
1023
1023
1023
806
479
289
571
1023
1023
1023
1023
1023
1023
800
476
287
560
1023
1023
1023
1023
1023
1023
795
473
286
551
1023
1023
1023
1023
1023
1023
792
472
285
539
1021
1023
1023
1023
1023
1023
787
469
283
527
1014
1023
1023
1023
1023
1023
783
466
282
517
1008
1023
1023
1023
1023
1023
779
464
281
505
1001
1023
1023
1023
1023
1023
776
462
279
495
995
1023
1023
1023
1023
1023
772
460
278
482
988
1023
1023
1023
1023
1023
769
458
277
473
982
1023
1023
1023
1023
1023
766
457
276
462
975
1023
1023
1023
1023
1023
765
456
276
450
969
1023
1023
1023
1023
1023
763
455
275
440
962
1023
1023
1023
1023
1023
760
453
274
432
956
1023
1023
1023
1023
1023
757
451
273
424
951
1023
1023
1023
1023
1023
754
450
272
414
944
1023
1023
1023
1023
1023
752
448
271
407
940
1023
1023
1023
1023
1023
751
448
271
397
933
1023
1023
1023
1023
1023
749
447
270
388
926
1023
1023
1023
1023
1023
747
446
270
381
921
1023
1023
1023
1023
1023
745
445
269
374
915
1023
1023
1023
1023
1023
747
445
269
363
907
1023
1023
1023
1023
1023
745
444
268
357
902
1023
1023
1023
1023
1023
742
442
268
350
896
1023
1023
1023
1023
1023
741
442
267
342
890
1023
1023
1023
1023
1023
741
442
267
336
884
1023
1023
1023
1023
1023
741
442
267
330
878
1023
1023
1023
1023
1023
742
442
267
325
874
1023
1023
1023
1023
1023
742
443
268
320
869
1023
1023
1023
1023
1023
742
442
267
316
865
1023
1023
1023
1023
1023
741
442
267
311
860
1023
1023
1023
1023
1023
740
441
267
306
856
1023
1023
1023
1023
1023
739
441
266
303
852
1023
1023
1023
1023
1023
738
440
266
298
847
1023
1023
1023
1023
1023
738
440
266
296
845
1023
1023
1023
1023
1023
738
440
266
292
841
1023
1023
1023
1023
1023
738
440
266
288
836
1023
1023
1023
1023
1023
737
440
266
285
833
1023
1023
1023
1023
1023
736
439
266
282
829
1023
1023
1023
1023
1023
737
440
266
271
817
1023
1023
1023
1023
1023
740
441
267
268
813
1023
1023
1023
1023
1023
739
441
266
266
811
1023
1023
1023
1023
1023
738
440
266
264
807
1023
1023
1023
1023
1023
738
440
266
261
804
1023
1023
1023
1023
1023
737
440
266
259
801
1023
1023
1023
1023
1023
737
440
266
257
799
1023
1023
1023
1023
1023
737
439
266
255
796
1023
1023
1023
1023
1023
737
439
266
252
792
1023
1023
1023
1023
1023
737
440
266
251
790
1023
1023
1023
1023
1023
738
440
266
251
789
1023
1023
1023
1023
1023
737
439
265
249
788
1023
1023
1023
1023
1023
737
440
265
248
786
1023
1023
1023
1023
1023
738
440
266
247
785
1023
1023
1023
1023
1023
737
439
266
249
786
1023
1023
1023
1023
1023
736
439
265
248
785
1023
1023
1023
1023
1023
736
439
265
246
783
1023
1023
1023
1023
1023
736
439
265
243
778
1023
1023
1023
1023
1023
737
440
266
241
775
1023
1023
1023
1023
1023
738
440
266
238
771
1023
1023
1023
1023
1023
737
440
266
235
766
1023
1023
1023
1023
1023
738
440
266
232
760
1023
1023
1023
1023
1023
738
440
266
230
758
1023
1023
1023
1023
1023
739
441
266
227
752
1023
1023
1023
1023
1023
740
441
267
220
740
1023
1023
1023
1023
1023
754
449
271
193
681
1023
1023
1023
1023
1023
749
447
270
206
711
1023
1023
1023
1023
1023
748
446
270
207
715
1023
1023
1023
1023
1023
749
446
270
203
706
1023
1023
1023
1023
1023
755
450
272
195
685
1023
1023
1023
1023
1023
752
448
271
202
703
1023
1023
1023
1023
1023
751
447
270
210
720
1023
1023
1023
1023
1023
745
444
268
215
729
1023
1023
1023
1023
1023
746
445
269
211
722
1023
1023
1023
1023
1023
750
447
270
220
737
1023
1023
1023
1023
1023
807
479
289
175
449
965
1023
1023
1023
1023
814
483
291
176
428
952
1023
1023
1023
1023
850
504
304
207
677
1023
1023
1023
1023
1023
1023
693
414
373
880
1023
1023
1023
1023
1023
1023
755
451
435
935
1023
1023
1023
1023
1023
1023
739
442
416
918
1023
1023
1023
1023
1023
1023
785
467
538
1017
1023
1023
1023
1023
1023
1023
887
532
801
1023
1023
1023
1023
1023
1023
1023
887
530
782
1023
1023
1023
1023
1023
1023
1023
931
578
897
1023
1023
1023
1023
1023
1023
1023
987
654
1006
1023
1023
1023
1023
1023
1023
1023
1010
688
1023
1023
1023
1023
1023
1023
1023
1023
1023
782
1023
1023
1023
1023
1023
1023
1023
1023
1023
919
1023
1023
1023
1023
1023
1023
1023
1023
1023
1023
1023
1023
1023
1023
1023
1023
1023
1023
1023
1023
1023
1023
1023
1023
1023
1023
1023
1023
1023
1023
1023
1023
1023
1023
1023
1023
1023
1023
1023
1023
1023
1023
1023
1023
1023
1023
1023
1023
1023
1023
1023
1023
1023
1023
1023
1023
1023
1023
1023
1023
1023
1023
1023
1023
1023
1023
1023
1023
1023
1023
1023
1023
1023
1023
1023
1023
1023
1023
1023
1023
1023
1023
1023
1023
1023
1023
1023
1023
1023
1023
1023
1023
1023
1023
1023
1023
1023
1023
1023
1023
1023
1023
1023
1023
1023
1023
1023
1023
1023
1023
1023
1023
1023
1023
1023
1023
1023
1023
1023
1023
1023
1023
1023
1023
1023
1023
1023
1023
1023
1023
1023
1023
1023
1023
1023
1023
1023
1023
1023
1023
1023
1023
1023
1023
1023
1023
1023
1023
1023
1023
1023
1023
1023
1023
1023
1023
1023
1023
1023
1023
1023
1023
1023
1023
1023
1023
1023
1023
1023
1023
1023
1023
1023
1023
1023
1023
1023
1023
1023
1023
1023
1023
1023
1023
1023
1023
1023
1023
1023
1023
1023
1023
1023
1023
1023
1023
1023
1023
1023
1023
1023
1023
1023
1023
1023
1023
1023
1023
1023
1023
1023
1023
1023
1023
1023
1023
1023
1023
1023
1023
1023
1023
1023
1023
1023
1023
1023
1023
1023
1023
1023
1023
1023
1023
1023
1023
1023
1023
1023
1023
1023
1023
1023
1023
1023
1023
1023
1023
1023
1023
1023
1023
1023
1023
1023
1023
1023
1023
1023
1023
1023
1023
1023
1023
1023
1023
1023
1023
1023
1023
1023
1023
1023
1023
1023
1023
1023
1023
1023
1023
1023
1023
1023
1023
1023
1023
1023
1023
1023
1023
1023
1023
1023
1023
1023
1023
1023
1023
1023
1023
1023
1023
1023
1023
1023
1023
1023
1023
1023
1023
1023
1023
1023
1023
1023
1023
1023
1023
1023
1023
1023
1023
1023
1023
1023
1023
1023
1023
1023
1023
1023
1023
1023
1023
1023
1023
1023
1023
1023
1023
1023
1023
1023
1023
1023
1023
1023
1023
1023
1023
1023
1023
1023
1023
1023
1023
1023
1023
1023
1023
1023
1023
1023
1023
1023
1023
1023
1023
1023
1023
1023
1023
1023
1023
1023
1023
1023
1023
1023
1023
1023
1023
1023
1023
1023
1023
1023
1023
900
536
486
780
1023
1023
1023
1023
1023
1023
773
460
325
570
924
1023
1023
1023
1023
1023
768
457
320
564
918
1023
1023
1023
1023
1023
714
426
269
459
825
1023
1023
1023
1023
1023
688
411
255
435
803
1023
1023
1023
1023
1023
678
405
250
425
794
1023
1023
1023
1023
1023
670
400
245
411
782
1023
1023
1023
1023
1023
652
390
237
393
765
1023
1023
1023
1023
1023
646
387
234
385
759
1023
1023
1023
1023
1023
654
391
237
391
767
1023
1023
1023
1023
1023
657
393
238
391
769
1023
1023
1023
1023
1023
651
389
236
385
764
1023
1023
1023
1023
1023
662
396
240
393
773
1023
1023
1023
1023
1023
665
398
241
392
774
1023
1023
1023
1023
1023
662
396
239
388
771
1023
1023
1023
1023
1023
667
399
241
393
778
1023
1023
1023
1023
1023
664
397
240
382
768
1023
1023
1023
1023
1023
664
397
240
386
775
1023
1023
1023
1023
1023
657
394
238
374
764
1023
1023
1023
1023
1023
643
385
232
360
753
1023
1023
1023
1023
1023
624
374
226
372
770
1023
1023
1023
1023
1023
619
371
224
379
781
1023
1023
1023
1023
1023
602
361
218
294
687
1023
1023
1023
1023
896
529
318
192
222
605
1021
1023
1023
1023
795
472
284
172
162
522
965
1023
1023
1023
707
421
254
154
127
470
931
1023
1023
1023
632
378
227
138
85
330
811
1023
1023
1016
593
354
213
129
130
522
989
1023
1023
1023
603
360
217
132
193
642
1023
1023
1023
1023
613
366
221
134
209
674
1023
1023
1023
1023
621
371
224
136
224
703
1023
1023
1023
1023
629
376
227
138
235
724
1023
1023
1023
1023
637
381
230
139
246
744
1023
1023
1023
1023
644
385
232
141
257
762
1023
1023
1023
1023
652
389
235
143
266
776
1023
1023
1023
1023
659
394
238
144
274
789
1023
1023
1023
1023
667
398
240
146
280
799
1023
1023
1023
1023
674
402
243
147
286
808
1023
1023
1023
1023
682
407
245
149
288
812
1023
1023
1023
1023
689
411
248
150
257
781
1023
1023
1023
1023
703
419
253
153
262
787
1023
1023
1023
1023
709
423
255
154
268
796
1023
1023
1023
1023
715
426
257
156
276
807
1023
1023
1023
1023
720
429
259
157
286
819
1023
1023
1023
1023
725
432
261
158
296
830
1023
1023
1023
1023
730
435
263
159
311
846
1023
1023
1023
1023
734
437
264
160
323
858
1023
1023
1023
1023
739
440
266
160
327
863
1023
1023
1023
1023
748
446
269
163
303
840
1023
1023
1023
1023
764
454
274
166
101
64
429
949
1023
719
424
253
152
92
57
36
397
929
1023
776
456
273
164
99
61
38
391
926
1023
847
495
296
178
107
66
41
369
912
1023
920
536
320
192
116
71
44
340
893
1023
998
579
345
207
125
76
47
301
866
1023
1023
608
361
217
131
79
49
272
845
1023
1023
644
382
229
138
84
52
295
863
1023
1023
684
406
243
147
89
55
314
878
1023
1023
708
419
251
152
92
56
335
892
1023
1023
727
430
258
156
94
58
343
898
1023
1023
709
420
252
152
92
56
332
891
1023
1023
660
391
235
142
86
53
325
887
1023
1023
654
388
233
140
85
52
332
892
1023
1023
695
412
247
149
90
55
344
900
1023
1023
691
409
245
148
90
55
340
898
1023
1023
671
398
239
144
87
54
331
892
1023
1023
638
379
227
137
83
51
305
875
1023
1006
583
347
208
125
76
47
272
853
1023
894
521
310
186
112
68
42
230
823
1023
753
442
264
158
95
58
36
202
802
1023
634
373
223
134
81
49
31
366
913
1023
1023
617
367
220
133
80
51
516
1002
1023
1023
677
402
241
145
88
55
511
999
1023
1023
775
458
275
166
100
61
438
956
1023
1023
848
499
300
180
109
67
458
968
1023
1023
913
536
321
193
117
71
473
977
1023
1023
965
566
338
204
123
75
485
985
1023
1023
1009
590
353
212
129
78
494
990
1023
1023
1023
627
375
226
136
83
525
1008
1023
1023
1023
672
400
241
146
89
543
1019
1023
1023
1023
685
408
246
149
91
551
1023
1023
1023
1023
696
415
250
151
93
549
1023
1023
1023
1023
669
399
240
145
88
512
1001
1023
1023
968
568
340
205
124
76
432
953
1023
1023
748
443
266
160
97
59
314
883
1023
912
532
317
190
115
70
43
196
800
1003
586
346
206
124
75
46
29
84
623
438
256
151
90
54
33
21
13
9
6
4
3
2
2
2
1
1
1
1
1
1
1
1
1
1
1
1
1
1
1
1
1
1
1
1
1
1
1
1
1
1
1
57
260
803
1023
1023
1023
1023
1023
1023
1023
1023
1023
1023
1023
1023
1023
1023
1023
1023
1023
1023
1023
1023
1023
1023
1023
1023
1023
1023
1023
1023
1023
1023
1023
1023
1023
1023
1023
1023
1023
1023
1023
1023
1023
1023
1023
1023
1023
1023
1023
1023
1023
1023
1023
1023
1023
1023
1023
1023
1023
1023
1023
1023
1023
1023
1023
1023
1023
1023
1023
1023
1023
1023
1023
1023
1023
1023
1023
1023
1023
1023
1023
1023
1023
1023
1023
1023
1023
1023
1023
1023
1023
1023
1023
1023
1023
1023
1023
1023
1023
1023
1023
1023
1023
1023
1023
1023
1023
1023
1023
1023
1023
1023
1023
1023
1023
1023
1023
1023
1023
1023
1023
1023
1023
1023
1023
1023
1023
1023
1023
1023
1023
1023
1023
1023
1023
1023
1023
1023
1023
1023
1023
1023
1023
1023
1023
1023
1023
1023
1023
1023
1023
1023
1023
1023
1023
1023
1023
1023
1023
1023
1023
1023
1023
1023
1023
1023
1023
1023
1023
1023
1023
1023
1023
1023
1023
1023
1023
1023
1023
1023
1023
1023
1023
1023
1023
1023
1023
1023
1023
1023
1023
1023
1023
1023
1023
1023
1023
1023
1023
1023
1023
1023
1023
1023
1023
1023
1023
1023
1023
1023
1023
1023
1023
1023
1023
1023
1023
1023
1023
1023
1023
1023
1023
1023
1023
1023
1023
1023
1023
1023
1023
1023
1023
1023
1023
1023
1023
1023
1023
1023
1023
1023
1023
1023
1023
1023
1023
1023
1023
1023
1023
1023
1023
1023
1023
1023
1023
1023
1023
1023
1023
1023
1023
1023
1023
1023
1023
1023
1023
1023
1023
1023
1023
1023
1023
1023
1023
1023
1023
1023
1023
1023
1023
1023
1023
1023
1023
1023
1023
1023
1023
1023
1023
1023
1023
1023
1023
1023
1023
1023
1023
1023
1023
1023
1023
1023
1023
1023
1023
1023
1023
1023
1023
1023
1023
1023
1023
1023
1023
1023
1023
1023
1023
1023
1023
1023
1023
1023
1023
1023
1023
1023
1023
1023
1023
1023
1023
1023
1023
1023
1023
1023
1023
1023
1023
1023
1023
1023
1023
1023
1023
1023
1023
1023
1023
1023
1023
1023
1023
1023
1023
1023
1023
1023
1023
1023
1023
1023
1023
1023
1023
1023
1023
1023
1023
1023
1023
1023
1023
1023
1023
1023
1023
1023
1023
1023
1023
1023
1023
1023
1023
1023
1023
1023
1023
1023
1023
1023
1023
1023
1023
1023
1023
1023
1023
1023
1023
1023
1023
1023
1023
1023
1023
1023
1023
1023
1023
1023
1023
1023
1023
1023
1023
1023
1023
1023
1023
1023
1023
1023
1023
1023
1023
1023
1023
1023
1023
1023
1023
1023
1023
1023
1023
1023
1023
1023
1023
1023
1023
1023
1023
1023
1023
1023
1023
1023
1023
1023
1023
1023
1023
1023
1023
1023
1023
1023
1023
1023
1023
1023
1023
1023
1023
1023
1023
1023
1023
1023
1023
1023
1023
1023
1023
1023
1023
1023
1023
1023
1023
1023
1023
1023
1023
1023
1023
1023
1023
1023
1023
1023
1023
1023
1023
1023
1023
1023
1023
1023
1023
1023
1023
1023
1023
1023
1023
1023
1023
1023
1023
1023
1023
1023
1023
1023
1023
1023
1023
1023
1023
1023
1023
1023
1023
1023
1023
1023
1023
1023
1023
1023
1023
1023
1023
1023
1023
1023
1023
1023
1023
1023
1023
1023
1023
1023
1023
1023
1023
1023
1023
1023
1023
1023
1023
1023
1023
1023
1023
1023
1023
1023
1023
1023
1023
1023
1023
1023
1023
1023
1023
1023
1023
1023
1023
1023
1023
1023
1023
1023
1023
1023
1023
1023
1023
1023
1023
1023
1023
1023
1023
1023
1023
1023
1023
1023
1023
1023
1023
1023
1023
1023
1023
1023
1023
1023
1023
1023
1023
1023
1023
1023
1023
1023
1023
1023
1023
1023
1023
1023
1023
1023
1023
1023
1023
1023
1023
1023
1023
1023
1023
1023
1023
1023
1023
1023
1023
1023
1023
1023
1023
1023
1023
1023
1023
1023
1023
1023
1023
1023
1023
1023
1023
1023
1023
1023
1023
1023
1023
1023
1023
1023
1023
1023
1023
1023
1023
1023
1023
1023
1023
1023
1023
1023
1023
1023
1023
1023
1023
1023
1023
1023
1023
1023
1023
1023
1023
1023
1023
1023
1023
1023
1023
1023
1023
1023
1023
1023
1023
1023
1023
1023
1023
1023
1023
1023
1023
1023
1023
1023
1023
1023
1023
1023
1023
1023
1023
1023
1023
1023
1023
1023
1023
1023
1023
1023
1023
1023
1023
1023
1023
1023
1023
1023
1023
1023
1023
1023
1023
1023
1023
1023
1023
1023
1023
1023
1023
1023
1023
1023
1023
1023
1023
1023
1023
1023
1023
1023
1023
1023
1023
1023
1023
1023
1023
1023
1023
1023
1023
1023
1023
1023
1023
1023
1023
1023
1023
1023
1023
1023
1023
1023
1023
1023
1023
1023
1023
1023
1023
1023
1023
1023
1023
1023
1023
1023
1023
1023
1023
1023
1023
1023
1023
1023
1023
1023
1023
1023
1023
1023
1023
1023
1023
1023
1023
1023
1023
1023
1023
1023
1023
1023
1023
1023
1023
1023
1023
1023
1023
1023
1023
1023
1023
1023
1023
1023
1023
1023
1023
1023
1023
1023
1023
1023
1023
1023
1023
1023
1023
1023
1023
1023
1023
1023
1023
1023
1023
1023
1023
1023
1023
1023
1023
1023
1023
1023
1023
1023
1023
1023
1023
1023
1023
1023
1023
1023
1023
1023
1023
1023
1023
1023
1023
1023
1023
1023
1023
1023
1023
1023
1023
1023
1023
1023
1023
1023
1023
1023
1023
1023
1023
1023
1023
1023
1023
1023
1023
1023
1023
1023
1023
1023
1023
1023
1023
1023
1023
1023
1023
1023
1023
1023
1023
1023
1023
1023
1023
1023
1023
1023
1023
1023
1023
1023
1023
1023
1023
1023
1023
1023
1022
1021
1020
1019
1018
1017
1016
1015
1014
1013
1012
1011
1010
1009
1008
1007
1006
1005
1004
1003
1002
1001
1000
999
998
997
996
995
994
993
992
991
991
989
989
988
987
986
985
984
983
982
981
980
979
978
977
977
976
975
974
973
972
971
970
969
968
967
967
966
965
964
963
962
961
960
959
958
957
957
955
954
954
953
952
951
950
949
949
948
947
946
945
944
944
943
942
941
940
940
939
938
937
936
935
935
934
933
932
931
931
930
929
928
927
926
926
925
924
923
923
922
921
920
919
918
918
917
916
915
915
914
913
912
911
911
910
909
908
908
907
906
905
904
904
903
902
901
901
900
899
899
898
897
896
896
895
894
893
892
892
891
890
889
889
888
887
886
886
885
884
884
883
882
882
881
880
879
879
878
877
876
876
875
874
874
873
872
872
871
870
869
869
868
867
867
866
865
864
864
863
862
862
861
860
860
859
858
858
857
856
856
855
854
854
853
852
852
851
850
850
849
848
848
847
847
846
845
845
844
843
843
842
841
841
840
840
839
838
838
837
836
836
835
834
834
833
832
832
831
831
830
830
829
828
828
827
826
826
825
825
653
392
238
146
89
55
90
295
505
355
207
122
186
395
277
161
95
57
35
22
14
9
66
317
240
139
81
48
29
18
11
7
114
417
326
189
111
66
40
24
15
9
165
510
425
247
146
87
52
32
20
13
224
607
511
298
176
105
63
38
24
21
286
700
595
346
205
122
74
45
28
35
350
792
679
395
234
140
84
51
32
55
418
884
750
436
259
155
93
57
35
81
490
963
796
463
275
165
99
61
37
107
556
1018
830
483
287
172
104
63
39
128
608
1023
869
504
301
180
108
66
41
149
656
1023
901
524
311
187
112
69
42
171
698
1023
935
543
323
194
117
71
44
188
729
1023
989
572
340
204
123
75
46
204
753
1023
1023
599
356
213
129
78
48
219
774
1023
1023
613
364
219
132
80
49
231
791
1023
1023
629
374
224
135
82
50
245
807
1023
1023
638
379
227
137
83
51
251
816
1023
1023
646
384
230
139
84
52
277
840
1023
1023
652
387
232
140
85
52
298
859
1023
1023
662
393
236
142
86
53
320
877
1023
1023
675
400
240
145
88
54
336
889
1023
1023
691
410
246
148
90
55
351
901
1023
1023
705
418
251
151
92
56
377
918
1023
1023
717
425
255
154
93
57
381
921
1023
1023
731
433
260
157
95
58
397
932
1023
1023
741
439
264
159
96
59
412
941
1023
1023
741
439
264
159
96
59
430
951
1023
1023
742
439
264
159
96
59
439
957
1023
1023
741
439
264
159
96
60
479
980
1023
1023
734
435
262
158
96
60
492
988
1023
1023
735
435
262
158
96
62
514
1001
1023
1023
745
441
265
160
97
71
563
1023
1023
1023
713
423
254
153
93
65
547
1021
1023
1023
743
440
265
160
97
71
568
1023
1023
1023
757
448
270
163
98
60
37
23
15
10
7
5
3
3
2
26
578
1023
1023
1023
885
521
313
189
114
84
594
1023
1023
1023
938
551
330
199
121
74
46
29
18
12
8
5
4
3
2
2
2
1
1
1
1
1
1
1
1
1
1
1
1
1
1
1
1
1
1
1
1
1
1
1
1
1
1
1
1
1
1
1
245
272
157
92
542
1014
1023
1023
1023
1023
1023
1023
962
569
637
1023
867
584
1004
1023
1023
1023
930
548
330
200
122
75
458
968
1023
1023
940
552
331
199
121
75
542
1018
1023
1023
880
518
311
188
114
79
601
1023
1023
1023
947
556
334
201
122
74
46
29
18
12
8
6
4
3
2
2
2
1
1
1
1
1
1
1
1
1
1
1
1
1
1
3
524
1003
1023
984
573
342
206
124
76
50
565
1023
1023
652
386
231
139
84
52
32
440
956
864
500
297
178
107
65
40
25
460
967
908
524
311
186
112
68
42
26
423
944
754
439
261
156
94
57
35
22
395
914
670
391
232
139
84
51
31
20
352
843
556
326
193
116
70
43
26
16
308
766
479
281
167
100
60
37
23
14
182
300
172
101
59
35
21
13
8
6
4
3
2
2
1
1
1
1
1
1
1
1
1
1
1
1
1
1
1
1
1
1
1
1
1
1
1
1
1
1
1
1
1
1
1
1
1
1
1
1
1
1
1
1
1
1
1
1
1
0
1
1
1
1
1
1
1
1
0
1
1
1
1
1
1
1
1
1
0
0
1
1
0
1
1
1
0
1
1
1
0
1
1
1
1
1
1
1
1
0
0
0
1
0
1
1
1
1
1
1
0
1
0
0
0
1
1
1
1
0
1
0
1
0
0
1
0
1
1
1
1
1
1
1
1
1
1
0
0
1
1
0
1
1
1
1
1
1
0
0
0
1
0
1
1
1
0
1
1
0
1
1
1
1
1
0
1
0
1
1
0
1
1
1
1
1
1
1
0
1
0
1
0
1
1
0
0
0
1
1
0
1
1
1
1
1
0
0
1
1
1
1
1
1
1
1
0
1
1
0
1
1
1
1
1
1
1
1
0
0
1
0
1
1
1
1
1
1
1
0
1
0
1
0
1
11
77
128
131
83
48
28
16
14
68
166
273
335
337
277
193
141
135
166
238
339
445
502
500
436
348
291
280
307
375
472
575
627
619
549
456
395
382
406
473
567
660
703
686
609
511
447
431
455
522
614
701
736
714
634
535
469
452
475
540
633
720
757
736
656
555
487
468
489
553
643
724
753
728
646
543
474
454
474
538
625
703
728
699
616
514
446
428
450
514
601
677
702
673
590
488
422
405
427
492
581
657
684
656
575
473
406
389
412
477
566
644
671
645
565
466
399
382
403
466
554
632
660
634
555
457
392
375
398
461
550
631
664
642
566
470
406
390
413
475
563
648
685
666
591
494
430
415
436
497
583
662
691
667
589
491
427
410
432
493
578
651
677
650
573
475
410
392
413
475
559
629
650
620
540
443
379
363
384
445
528
599
622
593
516
419
355
339
361
422
506
582
609
586
510
415
351
336
358
420
504
583
614
592
518
424
360
344
367
428
510
579
600
571
493
398
334
318
340
402
484
550
567
536
458
361
298
282
306
369
453
522
543
513
436
340
278
263
288
351
436
512
541
519
447
354
293
279
302
365
450
530
563
544
472
380
318
303
326
386
471
550
583
563
491
398
335
321
344
407
491
568
598
575
502
409
346
331
353
414
497
573
602
580
508
414
350
334
356
418
503
579
607
584
510
416
351
333
354
413
497
573
603
580
507
411
346
328
349
408
493
572
605
584
512
417
353
336
357
418
504
587
624
606
535
438
373
355
377
438
526
611
649
631
560
463
395
376
398
458
545
627
663
643
569
469
400
379
399
461
549
632
668
648
574
474
404
384
404
465
554
638
674
653
577
475
404
383
403
464
554
637
671
649
572
468
395
373
396
459
550
634
669
646
568
464
389
364
384
447
539
624
658
635
557
452
377
354
374
438
531
617
652
630
551
445
368
343
363
428
523
610
646
624
546
440
363
338
357
422
517
606
643
622
543
433
354
330
350
416
511
598
633
610
530
421
342
317
338
402
497
584
620
598
520
412
333
307
327
393
490
577
611
587
507
398
319
295
317
383
480
565
597
572
491
380
300
273
293
360
458
542
572
546
466
356
276
251
273
341
439
523
554
528
448
338
258
233
255
323
421
506
538
513
434
325
245
220
242
310
409
493
526
500
422
312
232
207
228
294
392
482
525
514
445
341
263
237
257
325
425
508
538
510
430
319
237
212
235
306
411
498
528
499
414
298
211
183
205
277
384
479
520
499
419
305
219
188
207
276
380
476
521
505
431
319
234
206
228
299
405
498
539
519
443
331
246
219
243
318
427
520
556
530
446
328
239
208
230
305
417
513
550
523
436
312
219
185
207
282
396
495
537
515
431
309
214
180
200
276
390
493
538
519
436
313
217
184
205
281
397
500
545
526
444
323
230
198
221
298
414
515
556
533
448
326
232
202
225
301
414
513
553
531
448
328
237
206
228
302
412
506
542
518
437
321
232
202
223
296
405
498
536
515
438
326
241
214
238
308
414
503
537
513
436
325
243
218
241
311
413
499
529
502
425
317
238
215
240
308
406
485
510
481
404
298
223
202
227
293
387
463
488
461
388
288
218
201
227
291
382
455
477
450
380
286
221
206
233
295
380
448
467
441
375
288
231
221
247
305
381
442
459
433
372
292
241
236
265
320
390
443
455
427
368
297
254
254
281
330
391
437
447
422
368
307
273
276
304
348
396
425
419
384
329
273
247
255
280
313
349
373
373
353
315
271
255
270
302
340
371
373
343
291
231
183
168
180
203
230
271
354
436
488
513
524
550
595
645
702
754
776
762
728
684
647
648
694
775
888
1023
1023
1023
1023
1023
1023
1023
1023
1023
1023
1023
1023
1023
1023
1023
1023
799
778
1023
1023
1023
1023
1023
1023
1023
1023
762
702
965
1023
1023
1023
1023
1023
1023
1023
719
653
943
1023
1023
1023
1023
1023
1023
1023
726
640
900
1023
1023
1023
1023
1023
1023
1023
706
620
904
1023
1023
1023
1023
1023
1023
1023
720
617
878
1023
1023
1023
1023
1023
1023
1023
706
592
851
1023
1023
1023
1023
1023
1023
1023
703
576
828
1023
1023
1023
1023
1023
1023
1023
698
597
927
1023
1023
1023
1023
1023
1023
1023
764
687
1023
1023
1023
1023
1023
1023
1023
1023
810
729
1023
1023
1023
1023
1023
1023
1023
1023
793
703
1023
1023
1023
1023
1023
1023
1023
1023
780
673
985
1023
1023
1023
1023
1023
1023
1023
753
613
878
1023
1023
1023
1023
1023
1023
1023
704
521
714
1023
1023
1023
1023
1023
1023
1023
619
410
511
794
1023
1023
1023
1023
1023
884
523
324
373
637
1022
1023
1023
1023
1023
856
506
329
475
838
1023
1023
1023
1023
1023
1023
702
487
656
1010
1023
1023
1023
1023
1023
1023
606
398
541
884
1023
1023
1023
1023
1023
897
531
320
235
332
559
750
790
680
452
266
160
98
61
38
24
49
48
28
17
11
7
5
4
3
2
2
2
1
1
1
1
1
1
1
1
1
1
1
1
1
1
1
1
1
1
1
1
1
1
1
1
1
1
1
1
35
170
258
230
134
78
46
27
67
239
473
645
698
629
459
303
234
254
361
550
732
823
807
691
488
310
228
245
357
558
746
830
800
666
443
262
161
155
254
452
667
792
793
675
457
271
166
156
245
446
722
927
996
926
740
563
475
481
574
755
961
1023
1023
966
757
568
465
448
511
716
1023
1023
1023
1023
1023
1023
1023
1023
1023
1023
1023
1023
1023
1023
1023
1023
1023
1023
1023
1023
1023
1023
1023
1023
1023
1023
1023
1023
1023
1023
1023
1023
1023
1023
1023
1023
1023
1023
1023
1023
1023
1023
1023
1023
1023
1023
1011
1023
1023
1023
1023
1023
1023
1023
941
558
405
594
888
1023
1023
1023
1023
1023
926
545
385
488
684
893
1023
1023
1023
956
681
401
260
317
477
673
820
871
833
726
492
291
175
176
295
468
607
658
626
527
345
203
122
103
177
315
432
474
443
348
210
124
74
46
69
186
302
345
312
215
125
74
44
27
18
82
180
221
190
116
67
40
24
15
10
40
134
193
188
123
71
42
25
15
10
93
234
309
291
194
113
66
40
24
14
66
198
285
288
204
118
69
41
25
15
99
251
337
326
225
131
77
46
27
17
85
233
325
323
229
133
78
46
28
17
80
216
289
264
166
96
57
34
20
13
8
5
4
2
2
2
1
1
1
1
14
269
603
821
895
836
715
681
714
774
862
983
1023
1023
1023
890
713
665
697
751
827
937
1017
1020
951
791
569
498
528
592
677
790
876
892
843
660
387
295
364
469
573
676
746
757
712
522
306
185
223
365
515
626
675
664
612
436
256
152
187
339
504
627
683
676
621
440
258
153
192
347
514
631
674
657
597
420
247
146
176
326
493
611
657
645
596
427
250
149
198
364
537
655
697
681
628
455
267
160
209
367
526
628
661
633
561
392
230
136
110
191
315
410
447
440
408
292
170
100
132
258
387
468
494
478
435
310
181
107
93
163
257
317
318
272
193
113
67
41
26
18
66
130
149
121
72
42
25
15
10
6
34
94
119
94
54
31
19
11
7
5
47
160
233
233
166
96
56
33
20
15
103
233
308
308
244
144
84
50
30
40
168
314
390
386
314
191
112
66
40
60
194
338
411
403
329
201
118
70
42
67
204
348
420
411
335
205
120
71
43
67
203
350
426
417
339
206
121
72
43
68
207
362
443
436
355
216
127
75
45
69
214
377
465
460
375
228
134
79
48
64
208
376
469
465
377
228
134
79
48
58
200
372
468
466
377
227
133
79
47
55
195
369
470
470
380
228
134
79
48
52
193
374
480
480
387
231
136
80
48
47
189
383
501
507
410
244
144
85
51
42
182
393
526
539
436
260
153
91
55
39
177
403
552
570
460
273
160
95
57
36
162
397
559
583
468
277
163
97
58
35
147
391
568
600
483
285
168
100
60
36
138
403
607
652
527
309
182
108
65
40
127
418
654
712
574
336
198
118
71
43
109
392
631
690
550
321
189
113
68
41
93
359
595
666
547
321
189
112
68
41
443
959
1023
1023
1023
1023
789
1023
1023
1023
1015
595
357
216
183
765
1023
1023
1023
1023
1023
1023
1023
1023
1023
1023
1023
1023
1023
1023
1023
1023
1023
1023
1023
1023
1023
1023
1023
1023
1023
1023
1023
1023
1023
1023
1023
1023
1023
1023
1023
1023
1023
1023
1023
1023
1023
1023
1023
1023
1023
1023
1023
1023
1023
1023
1023
1023
1023
1023
1023
1023
1023
1023
1023
1023
1023
1023
1023
1023
1023
1023
1023
1023
1023
1023
1023
1023
1023
1023
1023
1023
1023
1023
1023
1023
1023
1023
1023
1023
1023
1023
1023
1023
1023
1023
1023
976
949
983
1023
1023
1023
989
857
624
376
228
139
91
128
229
318
320
247
149
88
53
33
21
14
9
6
4
3
2
2
2
2
1
1
1
1
1
1
1
1
1
1
1
1
1
1
1
1
1
1
1
1
1
1
1
1
1
1
1
1
1
1
1
1
1
1
1
0
1
0
1
0
1
1
1
1
1
0
1
0
1
1
1
1
1
1
1
1
0
1
87
621
1023
1023
1023
1023
1023
1023
959
568
342
207
126
532
1013
1023
1023
1023
1023
1023
654
670
1023
1023
1023
1023
1023
1023
1023
1023
1023
1023
1023
1023
1023
1023
1023
1023
1023
1023
1023
1023
944
560
339
206
126
77
76
664
1023
705
413
246
148
89
55
34
134
757
1023
1023
801
472
283
170
103
63
210
817
1023
1023
1023
662
394
237
144
87
408
939
1023
1023
1023
886
523
315
190
115
419
946
1023
1023
1023
1023
737
439
265
160
516
1004
1023
1023
1023
882
521
314
189
115
308
881
1023
1023
1023
715
425
256
155
94
335
897
1023
1023
1023
734
436
263
159
96
333
896
1023
1023
1023
755
448
270
163
99
404
937
1023
1023
1023
634
379
228
138
84
376
920
1023
1023
1023
714
425
256
155
94
420
946
1023
1023
888
523
313
188
114
70
552
1023
1023
1023
1023
1023
864
512
332
814
1023
1023
1023
1023
1023
1023
1023
709
998
1023
1023
1023
1023
1023
1023
1023
1023
804
1023
1023
1023
1023
1023
1023
1023
1023
969
574
346
210
522
1009
1023
1023
1023
1023
694
415
251
152
474
979
1023
1023
1023
1023
744
444
268
162
410
942
1023
1023
1023
1023
647
387
233
142
321
890
1023
1023
1023
955
562
337
204
124
273
858
1023
1023
1023
916
540
324
196
119
251
843
1023
1023
1023
889
525
315
190
115
272
858
1023
1023
1023
958
564
338
204
124
307
881
1023
1023
1023
965
568
340
205
124
270
856
1023
1023
1023
892
526
316
191
116
286
867
1023
1023
1023
1023
608
364
220
133
358
912
1023
1023
1023
1023
662
396
239
145
468
976
1023
1023
1023
1023
931
550
331
676
1023
1023
1023
1023
1023
1023
997
588
354
556
1023
1023
1023
1023
1023
1023
955
564
340
580
1023
1023
1023
1023
1023
1023
932
552
332
312
865
1023
1023
1023
1023
1023
888
527
317
192
600
1023
1023
1023
1023
1023
806
479
289
175
476
981
1023
1023
1023
1023
788
469
283
171
486
987
1023
1023
1023
1023
793
471
285
172
455
969
1023
1023
1023
1023
765
455
275
166
377
924
1023
1023
1023
1023
671
401
242
147
327
893
1023
1023
1023
1023
642
384
232
141
315
885
1023
1023
1023
1012
594
356
215
130
288
867
1023
1023
1023
923
544
327
197
120
168
767
1023
1023
1023
628
374
225
136
83
72
638
1023
1023
755
445
267
160
97
59
41
566
1023
1023
701
414
247
149
90
55
38
566
1023
1023
696
411
245
148
89
55
34
515
1001
1023
596
353
211
127
77
47
30
511
998
960
553
328
196
118
72
44
27
516
1001
942
544
322
193
116
70
43
27
516
1001
922
533
316
189
113
69
42
26
502
993
856
496
294
176
106
64
39
25
499
991
834
484
288
172
103
63
38
24
497
989
794
462
274
164
98
60
37
23
480
960
693
405
240
144
86
53
32
20
461
912
608
356
211
126
76
46
29
18
440
835
518
304
180
108
65
40
24
15
419
751
446
262
156
93
56
34
21
13
410
698
408
239
142
85
51
31
19
12
396
574
330
194
115
69
42
25
16
10
12
7
5
3
3
2
1
1
1
1
1
1
1
1
1
1
1
1
1
1
1
1
1
1
1
1
1
1
1
1
1
1
1
1
1
1
1
0
1
1
1
1
1
1
1
1
1
1
1
0
1
1
1
1
1
1
1
1
1
1
1
1
1
1
1
0
1
1
1
0
0
1
1
1
1
1
0
0
1
0
0
1
1
1
1
0
1
1
1
1
1
1
1
1
1
0
1
1
1
1
0
1
0
1
1
1
1
1
1
0
1
1
1
0
1
1
0
1
0
0
1
1
0
1
1
1
1
1
0
1
1
1
0
1
1
1
1
1
0
0
1
1
1
1
0
1
0
0
1
1
0
2
27
53
38
21
13
7
4
14
93
190
260
291
269
202
141
114
125
185
286
378
440
468
446
384
326
300
310
368
464
554
616
645
624
561
502
477
489
555
666
768
839
868
833
745
662
619
625
704
842
969
1023
1023
1009
876
753
686
686
780
948
1023
1023
1023
1023
956
799
713
710
820
1019
1023
1023
1023
1023
1008
822
721
717
843
1023
1023
1023
1023
1023
1023
827
708
701
843
1023
1023
1023
1023
1023
1023
798
654
645
815
1023
1023
1023
1023
1023
1023
759
597
596
802
1023
1023
1023
1023
1023
1023
754
567
570
811
1023
1023
1023
1023
1023
1023
762
552
556
830
1023
1023
1023
1023
1023
1023
770
535
539
839
1023
1023
1023
1023
1023
1023
767
513
513
829
1023
1023
1023
1023
1023
1023
742
474
470
795
1023
1023
1023
1023
1023
1023
707
432
408
729
1023
1023
1023
1023
1023
1023
660
395
328
627
1023
1023
1023
1023
1023
1023
605
363
255
514
991
1023
1023
1023
1023
933
551
331
209
415
911
1023
1023
1023
1023
848
502
302
183
334
833
1023
1023
1023
1023
780
463
279
169
272
759
1023
1023
1023
1023
721
429
259
156
226
696
1023
1023
1023
1023
680
405
244
148
194
640
1023
1023
1023
1023
647
386
232
141
174
601
1023
1023
1023
1023
619
369
222
134
153
563
1023
1023
1023
1016
595
355
213
129
139
532
999
1023
1023
984
576
344
207
125
127
509
980
1023
1023
967
565
337
203
122
123
501
973
1023
1023
962
563
336
202
122
121
496
970
1023
1023
965
564
337
202
122
122
501
974
1023
1023
976
571
341
205
123
124
506
980
1023
1023
985
576
344
207
125
125
508
982
1023
1023
991
579
346
208
125
123
506
982
1023
1023
1000
585
349
210
127
123
508
984
1023
1023
1008
590
352
211
128
124
510
987
1023
1023
1016
594
354
213
129
123
509
987
1023
1023
1022
598
356
214
129
121
504
984
1023
1023
1023
598
356
214
130
119
502
983
1023
1023
1023
601
358
215
130
119
501
983
1023
1023
1023
603
359
216
131
117
496
979
1023
1023
1023
602
359
216
130
116
496
980
1023
1023
1023
608
362
218
132
118
500
983
1023
1023
1023
614
366
220
133
120
504
985
1023
1023
1023
619
369
222
134
123
509
990
1023
1023
1023
625
372
224
135
126
516
994
1023
1023
1023
632
376
226
137
131
521
997
1023
1023
1023
652
388
233
141
147
546
1013
1023
1023
1023
661
393
236
143
154
556
1020
1023
1023
1023
668
397
239
144
156
557
1019
1023
1023
1023
664
395
238
143
153
550
1014
1023
1023
1023
661
393
236
143
149
540
1007
1023
1023
1023
656
390
234
142
142
528
997
1023
1023
1023
652
388
233
141
138
522
994
1023
1023
1023
653
389
234
141
132
511
988
1023
1023
1023
655
390
234
142
129
506
985
1023
1023
1023
655
390
234
141
130
507
985
1023
1023
1023
654
389
234
141
130
507
985
1023
1023
1023
656
390
235
142
128
504
983
1023
1023
1023
660
393
236
143
128
503
982
1023
1023
1023
663
394
237
143
131
507
985
1023
1023
1023
668
397
239
144
132
508
985
1023
1023
1023
667
397
238
144
132
507
985
1023
1023
1023
670
398
239
144
131
506
984
1023
1023
1023
675
401
241
146
130
505
985
1023
1023
1023
676
402
242
146
129
503
983
1023
1023
1023
680
404
243
147
129
502
983
1023
1023
1023
684
407
244
147
128
504
987
1023
1023
1023
693
412
247
149
127
511
994
1023
1023
1023
700
416
250
151
126
509
993
1023
1023
1023
699
415
250
151
127
510
994
1023
1023
1023
702
417
251
151
126
507
991
1023
1023
1023
702
417
250
151
127
509
993
1023
1023
1023
704
418
251
152
127
508
992
1023
1023
1023
708
421
253
153
127
507
991
1023
1023
1023
710
421
253
153
129
511
994
1023
1023
1023
712
423
254
153
129
510
994
1023
1023
1023
716
425
256
154
130
512
994
1023
1023
1023
720
427
257
155
132
515
996
1023
1023
1023
721
428
258
155
132
513
995
1023
1023
1023
725
430
259
156
134
519
999
1023
1023
1023
731
434
261
157
136
520
999
1023
1023
1023
735
436
262
158
139
527
1004
1023
1023
1023
746
443
266
160
145
540
1013
1023
1023
1023
763
452
272
164
159
562
1023
1023
1023
1023
791
468
282
170
183
597
1023
1023
1023
1023
819
484
291
175
209
623
1023
1023
1023
1023
838
495
297
179
229
636
1023
1023
1023
1023
838
495
297
179
242
631
1023
1023
1023
1023
813
480
289
174
233
598
1023
1023
1023
1023
768
454
273
164
207
553
969
1023
1023
1023
719
426
255
154
177
511
931
1023
1023
1023
692
410
246
148
152
478
906
1023
1023
1023
675
400
240
144
137
453
885
1023
1023
1023
662
392
235
142
127
432
861
1023
1023
1023
651
386
231
139
120
413
830
1023
1023
1014
632
374
224
135
117
397
793
1023
1023
975
614
363
217
130
118
382
746
996
1023
918
588
347
207
125
122
365
684
897
952
834
552
326
194
116
133
339
591
757
802
720
520
313
186
139
191
334
486
582
609
573
487
399
345
327
335
350
358
361
366
389
451
526
576
581
518
364
214
127
79
143
374
651
837
877
732
440
260
155
93
64
333
815
1023
1023
1015
593
352
211
127
77
363
909
1023
1023
1023
768
455
274
165
100
507
998
1023
1023
1023
960
565
339
204
125
609
1023
1023
1023
1023
1023
650
389
234
143
610
1023
1023
1023
1023
1023
621
372
224
136
481
984
1023
1023
1023
878
518
311
188
114
335
879
1023
1023
1023
799
473
284
171
104
223
534
775
852
801
913
1023
1023
1023
1023
1023
1023
1023
1023
1023
1023
1023
1023
1023
1023
1023
1023
1023
1023
1023
1023
1023
1023
1023
1023
1023
1023
1023
1023
683
570
711
428
259
157
96
59
37
24
15
10
7
5
4
3
2
2
2
1
1
1
1
1
1
1
1
1
1
1
1
1
1
1
1
1
337
893
867
500
297
177
106
65
40
25
518
1002
1023
671
396
236
142
86
53
57
653
1023
1023
952
556
332
199
120
73
276
863
1023
1023
1023
1023
601
360
217
141
659
1023
1023
1023
1023
1023
898
531
320
509
1005
1023
1023
1023
1023
1023
1023
703
461
902
1023
1023
1023
1023
1023
1023
1023
775
604
1023
1023
1023
1023
1023
1023
1023
1023
817
747
1023
1023
1023
1023
1023
1023
1023
1023
815
788
1023
1023
1023
1023
1023
1023
1023
1023
798
673
1023
1023
1023
1023
1023
1023
1023
1023
754
558
1011
1023
1023
1023
1023
1023
1023
1023
716
517
976
1023
1023
1023
1023
1023
1023
1023
696
478
935
1023
1023
1023
1023
1023
1023
1023
682
436
865
1023
1023
1023
1023
1023
1023
1023
631
386
774
1023
1023
1023
1023
1023
1023
991
585
352
662
1023
1023
1023
1023
1023
1023
899
533
321
538
1022
1023
1023
1023
1023
1023
835
496
299
307
859
1023
1023
1023
1023
1023
690
413
249
173
687
1023
1023
1023
1023
910
537
323
195
119
449
964
1023
1023
1023
757
450
271
164
100
296
873
1023
1023
1021
596
356
214
130
79
128
734
1023
1023
728
430
258
155
94
58
38
549
1020
840
487
290
173
104
64
39
25
284
672
450
263
156
93
56
34
21
14
318
771
554
324
191
114
69
42
26
20
532
1009
869
503
299
178
107
65
40
62
655
1023
1023
624
369
221
133
80
49
112
725
1023
1023
722
426
255
153
93
57
182
793
1023
1023
825
485
290
175
106
64
233
831
1023
1023
899
527
315
190
115
70
265
853
1023
1023
909
533
319
192
116
71
281
863
1023
1023
949
556
332
200
121
73
307
880
1023
1023
977
571
341
205
124
76
261
850
1023
1023
936
548
328
197
119
73
249
842
1023
1023
902
529
317
190
115
70
262
851
1023
1023
890
523
313
188
114
69
239
834
1023
1023
862
506
303
182
110
67
206
809
1023
1023
835
491
294
177
107
65
193
797
1023
1023
804
473
284
170
103
63
165
771
1023
1023
764
451
270
162
98
60
159
764
1023
1023
780
459
275
165
100
61
164
768
1023
1023
747
441
264
159
96
59
179
783
1023
1023
787
463
278
167
101
61
292
870
1023
1023
1023
618
368
222
134
81
246
835
1023
1023
820
482
289
174
105
64
199
799
1023
1023
826
486
291
175
106
64
228
822
1023
1023
836
491
294
177
107
65
211
806
1023
1023
791
466
279
168
101
62
174
768
1023
1023
738
435
261
157
95
58
173
767
1023
1023
716
423
253
152
92
56
127
707
1023
1023
661
391
233
141
85
52
117
687
1023
1001
589
349
208
125
76
47
105
663
1023
1023
633
374
224
134
81
50
119
675
1023
1023
627
371
222
133
80
49
119
657
1023
926
544
323
193
116
70
43
78
553
946
824
483
286
171
102
62
38
136
678
1023
1002
615
363
217
130
79
48
200
759
1023
1023
788
463
277
166
100
61
273
822
1023
1023
790
464
278
167
100
77
371
905
1023
1023
954
561
335
201
121
91
387
916
1023
1023
983
579
345
207
125
100
409
929
1023
1023
939
551
329
198
119
107
421
933
1023
1023
875
513
307
184
111
71
311
849
1023
1023
901
529
316
190
114
74
304
839
1023
1023
881
519
310
186
112
93
376
896
1023
1023
922
546
326
196
118
106
419
934
1023
1023
984
584
348
209
126
133
482
979
1023
1023
1023
638
380
228
138
139
456
954
1023
1023
995
600
358
215
130
130
445
948
1023
1023
1012
616
367
220
133
117
436
943
1023
1023
1007
612
364
219
132
116
400
909
1023
1023
919
547
326
196
118
96
365
878
1023
1023
944
568
339
203
122
142
432
923
1023
1023
888
533
318
191
115
108
392
898
1023
1023
909
549
327
196
118
132
448
944
1023
1023
991
603
359
216
130
166
474
952
1023
1023
923
561
335
201
121
148
417
886
1023
1023
867
529
315
189
114
127
400
885
1023
1023
878
532
317
190
114
159
454
929
1023
1023
889
546
325
195
118
119
381
868
1023
1023
931
566
337
202
122
153
448
927
1023
1023
906
548
327
196
118
111
370
848
1023
1023
870
533
317
190
115
123
383
858
1023
1023
840
508
303
182
109
76
272
731
1023
988
706
419
250
150
90
64
252
694
1021
985
681
400
238
143
86
53
141
512
798
759
490
289
171
103
62
38
24
15
10
7
5
3
2
2
2
1
1
1
1
1
1
1
1
1
1
1
1
1
1
1
1
1
1
1
1
1
1
1
1
1
1
1
0
1
1
1
1
1
1
1
1
1
1
1
0
1
1
1
10
6
3
2
1
1
1
1
35
243
428
464
426
392
306
263
344
505
720
1023
1023
1023
969
708
430
258
204
308
499
754
925
889
736
550
331
200
211
364
585
844
1023
1023
908
705
432
257
223
350
534
778
936
927
790
574
339
202
124
170
340
607
773
738
566
361
213
127
87
159
328
584
734
687
515
318
188
112
68
76
187
400
545
520
366
219
129
77
47
59
171
361
468
419
290
170
100
60
36
34
112
281
396
361
230
134
79
47
28
18
74
239
342
307
189
110
65
39
23
14
43
188
306
311
231
135
79
47
34
87
183
309
387
407
370
304
186
118
150
230
339
475
552
530
423
304
211
200
271
370
474
609
690
669
612
548
446
385
399
471
548
661
744
741
688
619
530
506
531
569
611
701
783
802
759
687
582
506
507
566
636
719
755
733
686
612
510
471
508
585
668
756
802
791
738
659
566
520
541
595
641
728
803
816
782
729
642
601
634
689
754
860
946
956
911
852
752
703
749
836
915
979
990
947
865
788
716
700
738
775
823
902
961
968
937
890
825
789
803
845
895
958
1003
1001
961
903
837
802
815
859
918
996
1023
1023
1023
1023
946
887
877
896
929
997
1023
1023
1023
991
899
832
821
870
942
1023
1023
1023
1014
931
852
840
876
902
947
1023
1023
1023
1023
1000
924
865
863
902
953
1023
1023
1023
1023
970
880
825
833
881
939
1023
1023
1023
988
913
826
777
803
854
906
984
1011
979
935
883
802
734
707
742
811
909
968
943
879
797
702
635
632
684
763
882
963
963
901
812
704
634
644
682
727
806
871
855
799
737
652
598
611
665
723
808
863
849
786
708
599
519
520
585
669
748
798
791
755
725
664
579
517
507
555
661
747
779
757
696
572
467
437
474
539
626
697
702
653
580
487
427
438
495
576
675
731
706
638
561
459
391
392
451
552
689
773
740
639
529
425
375
385
426
495
605
690
691
631
543
434
370
369
395
440
542
641
659
602
502
352
233
224
304
428
562
633
617
561
487
369
275
290
381
478
582
643
619
549
476
381
308
300
354
437
541
614
597
537
469
368
289
280
320
400
534
647
666
608
489
334
230
241
318
379
446
512
525
476
399
291
225
249
319
410
515
583
583
543
467
362
285
273
332
431
549
625
611
546
466
346
267
298
389
476
581
659
645
563
465
350
285
299
341
418
553
652
657
606
532
415
315
268
298
382
509
606
604
532
447
355
307
343
421
493
578
639
633
563
460
335
257
268
336
410
506
598
613
551
464
347
235
195
233
312
443
547
562
504
407
282
215
247
321
395
495
569
559
498
429
321
228
209
277
370
467
533
518
441
350
234
149
152
232
343
459
543
538
479
397
286
224
278
397
526
671
788
799
746
669
539
411
356
384
431
521
600
584
488
375
241
144
120
162
222
319
416
453
417
337
218
132
140
214
294
386
459
472
448
386
250
147
129
188
282
421
528
521
443
352
229
135
121
178
266
393
486
491
448
386
272
183
179
239
323
440
534
554
500
417
294
186
178
243
318
412
493
502
440
362
265
206
234
329
422
523
574
542
470
381
265
178
181
249
359
498
610
615
550
453
315
200
183
258
376
521
620
632
582
501
398
324
328
373
434
550
635
626
552
447
326
250
263
331
417
527
620
635
572
473
360
305
333
409
503
614
684
666
582
492
409
351
356
419
513
632
721
723
631
531
434
372
360
383
431
528
613
616
558
474
359
272
283
351
433
536
597
574
509
438
345
271
270
335
404
491
555
541
457
349
225
153
190
298
406
516
590
593
531
446
315
198
175
236
330
443
517
524
474
386
276
207
218
291
373
482
585
603
522
410
280
184
189
256
350
468
559
580
542
483
381
285
276
318
389
501
594
601
538
455
339
250
246
309
398
512
612
620
569
500
395
293
272
340
437
558
648
643
583
496
380
307
316
357
413
519
604
610
555
486
388
301
283
322
395
513
609
637
604
530
412
295
271
334
433
562
661
671
625
547
423
323
305
353
424
537
642
658
608
528
409
321
312
346
411
529
639
665
616
537
440
361
343
376
424
525
622
643
608
541
418
305
287
345
446
576
680
696
632
541
427
330
304
361
471
610
716
744
705
600
469
351
302
356
460
589
688
695
637
578
483
385
372
410
444
524
618
654
630
558
446
346
323
359
431
552
672
698
615
506
388
298
296
370
466
589
691
689
594
480
376
320
339
391
457
563
673
707
664
577
448
336
313
376
479
608
735
769
694
557
397
283
274
348
439
556
662
685
627
540
429
335
329
410
500
619
724
731
657
564
449
346
324
375
456
595
720
745
676
574
439
322
300
360
431
544
667
717
676
581
445
342
336
389
456
557
655
674
601
501
402
323
316
383
475
591
683
678
607
513
384
290
302
365
449
586
713
747
686
561
400
277
263
321
395
511
626
657
622
544
421
312
286
341
432
571
697
721
665
566
424
304
288
350
446
586
710
733
671
575
438
324
304
364
464
604
716
729
665
577
454
336
319
390
484
602
702
723
687
615
481
342
300
367
464
594
714
756
708
628
512
388
342
381
456
579
703
718
632
531
433
348
351
422
507
624
734
752
689
585
460
357
336
383
466
603
721
732
663
556
438
350
336
388
465
576
683
717
678
599
481
378
381
487
640
810
956
1002
956
856
704
561
512
526
554
614
678
672
601
496
382
278
246
287
387
543
704
758
687
558
395
261
229
271
354
480
602
645
598
526
419
308
268
308
404
529
629
668
632
548
430
333
323
381
451
543
634
649
599
522
407
307
305
364
453
578
684
703
681
655
584
460
382
385
450
563
675
703
646
556
438
348
336
390
466
576
682
708
660
590
482
362
322
384
487
619
738
755
683
595
487
395
382
439
509
608
711
741
690
620
507
400
382
445
544
671
768
772
711
628
526
438
425
485
571
702
838
871
789
657
507
399
398
478
578
689
790
808
756
675
542
409
379
444
558
666
748
761
704
628
532
433
400
440
511
612
732
776
722
629
490
354
301
333
414
528
632
652
596
506
382
261
227
270
355
477
594
622
555
445
320
222
214
270
352
482
623
674
611
482
326
196
155
203
296
422
550
591
559
483
345
210
183
243
331
439
541
559
504
442
358
277
263
306
383
505
638
693
641
517
352
208
162
229
338
473
593
637
593
503
400
305
277
311
382
509
654
693
634
539
414
289
260
334
447
587
712
730
656
548
430
343
352
425
504
614
706
723
667
575
456
343
326
392
493
615
716
745
710
623
479
336
310
379
482
635
767
799
732
623
494
381
373
444
540
662
793
844
787
680
549
427
376
404
469
589
723
769
727
633
517
403
375
428
505
618
723
733
676
604
501
388
345
381
466
604
736
779
735
640
501
373
350
418
508
627
736
764
716
634
515
394
359
405
492
628
763
807
752
662
530
394
343
391
479
596
711
747
694
590
456
352
347
421
514
643
782
831
789
699
552
399
342
374
452
581
719
770
729
632
494
367
338
404
501
623
735
765
712
610
465
327
311
394
497
634
770
807
728
613
483
354
333
411
514
639
761
797
740
633
488
355
330
404
507
635
744
739
645
540
428
333
341
414
490
590
701
742
709
635
515
371
320
373
464
577
706
766
729
639
500
359
327
400
483
580
720
790
751
637
470
304
248
313
431
567
685
720
666
565
438
330
308
357
447
579
718
752
689
587
454
321
281
350
470
643
800
834
752
624
462
310
256
313
430
580
724
761
695
592
468
349
325
390
477
597
737
773
703
600
468
324
268
330
466
639
812
857
760
622
463
314
267
336
459
605
739
768
701
604
456
303
248
303
399
532
672
722
646
526
386
244
211
283
390
532
674
705
629
518
377
233
203
277
404
580
775
878
871
808
690
545
491
543
619
723
816
810
711
570
373
221
133
125
195
343
528
601
542
435
288
170
125
174
281
434
585
636
584
486
337
198
143
202
318
460
605
667
622
513
362
221
188
258
360
477
603
651
607
523
399
257
206
269
366
497
657
704
630
518
393
259
237
319
423
556
711
752
674
553
408
253
205
267
370
514
680
753
708
606
458
314
284
354
444
572
712
760
687
563
425
290
246
316
437
600
776
832
777
664
490
333
297
364
472
620
760
789
722
630
496
350
314
405
539
677
803
827
750
653
546
422
386
434
531
670
831
901
854
750
603
448
390
443
552
714
888
946
876
744
584
429
391
458
553
692
844
892
824
705
554
387
303
359
482
632
788
841
754
618
465
313
262
315
423
563
706
752
703
605
446
271
200
251
354
501
666
724
660
538
401
257
213
292
413
559
712
756
678
568
428
261
179
231
355
516
684
747
694
592
454
291
232
290
389
525
694
775
725
612
458
315
275
339
466
634
794
830
737
602
454
307
251
301
411
551
703
752
691
588
448
304
273
356
492
653
804
855
800
703
556
377
291
334
454
629
796
861
820
720
568
403
342
417
534
679
827
879
822
691
544
394
322
352
426
565
752
840
810
706
540
352
281
358
477
606
744
795
741
636
490
324
270
354
489
640
792
847
788
684
546
386
323
388
496
614
735
778
725
614
471
332
283
343
459
593
737
796
738
623
467
322
277
331
430
562
705
756
703
592
460
322
282
352
462
605
769
821
738
627
490
347
297
354
453
580
725
786
727
610
455
287
223
271
380
544
734
817
761
636
474
306
253
315
406
529
668
712
656
562
438
299
250
306
414
553
720
795
757
660
504
326
244
277
383
539
712
781
724
605
448
293
245
296
381
511
683
780
749
634
486
323
244
275
393
566
731
803
768
674
528
357
281
319
426
581
761
821
749
635
497
341
270
318
433
592
755
799
716
589
448
306
265
325
430
563
720
784
725
623
500
364
332
395
483
610
768
815
730
625
506
373
330
390
493
623
776
839
774
660
534
387
318
369
490
624
779
845
782
670
518
342
277
343
474
642
826
888
817
696
546
377
302
348
453
588
761
855
820
700
533
364
314
388
505
638
784
853
803
684
533
364
288
328
431
583
755
825
782
665
520
372
319
379
470
587
751
839
796
682
542
383
306
356
459
585
741
802
740
634
498
360
319
385
506
628
759
814
768
671
527
365
307
380
513
670
856
973
973
929
859
746
683
694
750
842
954
962
846
673
471
283
220
304
421
552
713
794
745
623
469
317
271
336
447
590
747
808
735
607
453
288
236
317
445
590
744
807
759
656
505
331
243
287
408
560
727
797
725
602
470
350
318
377
469
596
756
824
776
668
514
340
278
339
448
583
742
817
772
668
521
342
251
287
399
565
765
869
843
744
611
447
352
355
413
539
724
820
793
699
579
437
360
392
482
599
753
825
770
649
514
371
322
388
504
654
813
868
826
708
556
403
349
414
524
663
823
892
821
687
556
421
380
449
564
702
841
902
853
752
627
474
403
453
566
708
860
936
897
792
657
511
454
500
613
714
831
887
841
737
611
473
395
393
459
585
757
833
782
682
545
384
334
400
503
608
731
785
735
631
497
339
263
295
386
507
654
726
692
615
506
349
260
287
375
515
676
744
703
605
470
320
270
323
440
590
739
781
707
586
443
281
228
296
401
517
643
693
651
569
467
346
308
366
463
578
722
790
746
633
495
336
262
324
460
607
757
829
806
704
560
413
355
390
468
567
711
798
766
672
550
401
321
354
459
592
742
813
761
650
516
383
331
370
444
553
698
758
713
634
529
383
309
347
442
570
719
780
737
655
558
430
352
371
449
556
690
763
733
633
487
325
253
303
408
527
681
768
744
660
537
370
278
303
396
533
695
750
686
579
452
302
235
278
390
535
699
760
711
618
502
360
291
323
419
548
697
762
706
596
479
333
256
308
429
557
693
766
717
605
477
329
261
311
400
500
629
684
646
563
461
329
266
299
391
515
674
760
716
600
462
304
232
275
377
495
626
694
665
587
477
335
266
301
401
526
667
727
680
576
455
306
235
279
391
532
688
743
670
545
405
259
211
268
357
475
630
722
687
582
441
276
206
261
360
480
628
710
677
589
473
326
256
299
393
511
655
721
671
562
442
304
251
311
412
530
670
733
677
554
426
297
233
278
387
530
680
746
715
619
492
345
259
283
375
491
630
710
682
595
481
338
256
287
370
479
630
710
683
600
491
355
275
282
352
458
609
691
657
571
454
310
248
279
372
512
672
743
704
610
466
301
222
250
348
470
627
713
680
585
461
311
227
266
369
501
658
746
718
623
512
373
287
310
401
523
676
739
677
567
424
260
197
252
354
489
640
716
689
601
483
342
284
337
451
585
732
796
741
623
479
308
219
255
367
507
677
778
753
639
476
308
235
286
392
492
623
701
675
570
448
335
333
455
625
808
998
1023
1023
949
786
573
433
402
446
536
675
723
642
507
364
226
174
231
337
457
606
676
632
541
411
250
175
226
349
500
665
732
674
566
441
294
216
253
360
487
638
724
687
580
451
301
226
261
340
454
613
694
659
575
475
333
242
267
349
476
642
734
712
624
487
330
258
299
393
517
683
782
755
651
512
341
255
293
401
543
713
807
784
691
566
397
299
316
401
521
684
770
733
634
520
383
310
345
456
586
719
786
755
653
526
388
322
347
433
559
733
838
811
712
608
473
386
413
525
656
795
862
829
736
611
451
383
438
544
668
815
896
855
749
633
487
416
458
544
654
798
874
847
742
597
429
338
367
458
569
706
795
775
691
575
429
343
338
405
519
662
738
689
578
449
307
249
289
376
500
657
725
646
509
382
242
167
216
328
443
599
693
660
549
404
247
176
226
308
404
538
624
613
547
451
301
210
211
292
441
619
710
686
586
461
310
215
233
317
444
599
679
654
569
470
353
282
313
404
512
650
728
685
567
430
287
229
292
404
524
676
743
693
600
494
365
296
321
398
499
645
730
702
610
495
342
250
277
390
524
671
764
741
636
484
312
226
262
362
493
655
728
660
524
379
224
137
169
295
444
631
750
706
536
327
193
115
74
112
214
388
474
342
198
117
69
42
27
17
11
123
223
132
77
45
27
16
10
7
342
900
1023
1023
921
540
322
193
116
146
755
1023
1023
1023
1023
1023
906
536
321
194
530
1015
1023
1023
1023
1023
1023
643
384
231
430
958
1023
1023
1023
1023
1023
884
524
315
237
793
1023
1023
1023
1023
1023
996
1023
1023
1023
1023
1023
1023
1023
1023
1023
1023
1023
1023
1023
1023
1023
1023
1023
1023
1023
920
992
1023
1023
1023
1023
1023
1023
1023
629
378
229
233
731
1023
1023
1023
986
579
346
208
126
77
50
440
791
518
303
179
107
65
40
25
16
11
7
5
4
3
2
2
2
1
1
1
1
1
1
1
1
1
1
1
109
420
703
844
891
874
782
755
868
1023
1023
1023
1023
1023
1023
1023
1023
1023
1023
1023
1023
1023
1023
1023
1023
1023
1023
1023
1023
1023
1023
1023
1023
1023
1023
1023
1023
1023
1023
1023
1023
1023
1023
1023
902
735
561
391
261
173
113
72
45
29
18
12
8
6
4
3
2
2
2
1
1
1
1
1
1
1
1
1
1
1
1
7
93
169
159
99
57
34
20
12
7
28
132
195
175
133
80
47
28
17
24
96
205
253
207
123
72
43
25
38
108
193
303
374
392
373
332
274
224
187
149
115
86
52
31
19
12
8
5
3
2
2
2
2
6
30
48
40
24
23
40
55
73
117
152
152
140
120
115
120
131
141
157
171
178
168
157
157
164
170
174
194
222
213
195
217
250
261
249
235
231
231
207
189
181
190
208
237
265
