
335
306
300
320
358
391
398
380
347
319
315
334
370
402
409
392
359
330
326
346
383
415
423
405
370
340
337
358
397
430
437
419
386
358
355
375
414
447
454
435
401
373
369
390
427
458
464
446
411
383
380
401
440
471
476
455
420
394
391
413
452
484
488
467
432
405
404
425
462
492
496
477
441
413
412
435
474
506
510
489
452
425
425
449
487
516
520
499
463
435
435
457
495
525
527
506
468
440
438
463
502
533
536
515
477
447
445
468
506
535
537
516
479
452
453
478
517
547
547
523
486
458
457
480
518
546
547
524
485
457
457
482
522
551
551
527
488
461
462
486
525
553
552
527
489
463
464
489
529
556
557
535
496
469
470
496
535
562
562
539
501
476
477
502
541
567
567
543
504
479
481
507
547
574
572
547
509
484
486
513
552
578
576
551
513
487
489
516
555
579
576
551
513
487
490
516
554
580
579
554
517
492
495
523
561
586
581
554
515
489
492
519
558
583
580
553
515
490
494
522
560
586
585
559
522
496
500
528
566
590
587
562
524
499
502
530
568
594
591
565
525
501
506
534
571
594
591
564
526
501
506
535
575
599
595
569
532
509
515
542
580
603
598
571
532
508
513
541
579
603
597
569
531
508
514
543
581
604
600
574
537
514
520
548
587
610
605
576
538
515
521
549
588
610
604
576
538
515
519
547
585
608
602
574
536
514
521
550
589
610
604
574
537
516
524
554
594
616
609
581
544
524
531
561
599
620
613
584
547
526
533
562
599
617
610
581
544
523
530
559
597
619
613
583
544
524
532
562
601
621
614
586
548
528
536
567
606
625
618
588
550
530
539
569
606
623
614
584
547
529
540
571
609
629
621
591
554
535
544
575
612
631
622
591
552
532
542
574
612
631
622
591
553
535
544
576
613
632
623
594
558
541
551
582
619
636
625
594
557
540
550
581
617
635
625
594
557
540
552
584
620
637
627
595
558
541
552
584
620
637
626
596
559
542
553
585
622
637
625
594
558
543
554
585
621
636
623
592
557
541
552
584
621
637
625
593
557
541
553
585
621
637
627
595
558
541
552
586
622
638
625
592
557
543
555
588
624
639
626
594
557
543
555
587
623
638
624
590
554
539
552
587
623
637
624
592
556
543
557
591
627
641
627
594
557
543
556
589
625
638
623
589
552
539
553
586
620
632
617
583
549
536
550
584
619
631
615
581
546
534
550
585
620
632
617
583
548
536
551
585
619
631
617
583
547
535
550
585
619
630
615
582
546
533
549
582
615
624
609
575
541
530
545
580
614
626
611
575
539
527
544
580
614
625
609
574
540
531
548
584
617
627
612
577
542
531
548
582
616
626
610
575
540
530
547
584
619
629
611
575
541
531
548
585
619
629
612
576
540
531
549
586
620
628
610
574
540
532
550
586
619
628
609
572
539
530
548
585
618
626
607
570
538
531
551
589
621
628
608
571
538
530
548
585
618
625
606
570
539
531
549
584
616
623
604
568
536
529
547
583
615
621
603
567
537
530
549
585
618
625
605
568
535
529
547
585
617
624
603
564
531
525
543
581
613
620
600
564
532
528
549
586
618
623
604
567
535
530
551
588
619
625
606
570
540
535
555
592
622
627
605
567
534
530
553
591
622
626
607
570
538
532
553
590
620
623
601
564
534
532
552
588
618
623
602
565
535
531
551
588
618
622
601
563
534
532
552
590
618
622
602
565
535
532
552
589
619
623
601
563
532
528
550
589
618
622
601
563
532
528
551
587
616
618
597
560
531
528
550
588
616
618
595
557
528
526
549
586
614
616
594
556
528
525
547
586
614
615
591
553
525
522
545
584
611
612
587
548
520
518
541
580
609
611
587
548
519
519
543
582
608
609
586
549
523
523
547
585
611
611
587
549
522
521
546
584
611
611
586
547
520
521
546
584
610
608
582
544
518
519
543
581
607
607
584
545
517
518
543
581
606
604
580
543
516
516
540
577
601
600
573
534
508
510
537
575
600
599
574
535
507
508
535
574
598
595
571
533
508
511
538
577
602
598
572
534
508
511
538
577
601
598
572
533
507
510
537
576
600
595
569
531
507
512
538
576
600
596
569
530
505
508
534
572
595
591
565
526
502
505
534
572
595
591
563
524
500
503
532
570
593
588
559
519
494
497
525
564
588
582
553
514
491
495
523
560
582
577
550
511
488
492
519
558
581
575
547
508
486
491
517
554
576
570
542
502
480
486
514
551
572
565
537
499
477
483
511
550
571
563
536
498
477
484
512
552
573
566
537
498
476
483
513
552
573
565
536
497
476
482
511
550
571
563
534
496
478
485
513
550
571
562
533
495
475
482
511
550
571
562
532
494
474
483
513
552
572
564
536
498
479
488
519
558
577
569
541
504
486
495
526
563
582
572
541
502
482
489
519
556
575
567
538
499
481
489
519
559
579
570
540
500
480
488
517
555
574
566
536
498
480
488
518
554
571
560
528
491
474
484
516
553
570
559
527
490
473
484
516
555
572
561
530
493
476
486
516
552
567
556
525
488
472
484
517
554
572
561
528
490
474
486
518
555
571
560
530
493
476
488
521
558
572
561
528
491
475
485
517
555
571
559
527
490
475
488
520
555
568
556
523
487
471
482
515
552
568
555
523
487
472
484
517
553
567
553
520
484
469
482
515
552
565
552
519
484
471
484
518
554
568
555
522
485
471
485
519
555
569
555
522
485
471
484
518
556
570
556
523
487
476
491
524
558
570
556
523
489
476
490
524
557
568
554
520
484
472
485
519
555
568
555
521
486
474
487
520
555
567
553
520
485
473
487
521
556
569
552
518
483
470
485
520
554
565
551
517
482
472
489
524
558
568
552
518
484
475
492
528
562
574
559
525
491
479
493
527
560
569
552
518
484
473
489
523
557
568
552
518
484
473
490
525
558
567
551
516
481
471
488
524
558
565
548
513
481
472
489
524
557
566
549
515
481
473
491
527
562
570
551
515
480
472
490
526
559
567
549
513
480
472
490
527
559
567
547
510
478
471
488
524
557
565
548
511
479
472
491
528
560
568
549
511
478
471
491
529
562
569
550
513
482
475
492
529
561
566
547
511
479
472
491
527
558
565
547
509
477
469
488
526
559
566
545
508
476
469
489
525
556
562
542
504
473
466
485
522
553
558
538
501
471
466
487
524
556
562
542
503
471
466
487
525
554
559
540
504
473
467
487
523
554
560
541
503
474
471
492
529
559
564
544
506
477
472
492
530
560
564
542
504
473
469
489
526
556
559
537
499
468
464
486
525
555
559
537
498
469
466
487
526
555
557
533
495
467
464
485
522
552
554
531
493
463
461
485
525
554
553
529
491
463
461
484
521
551
552
528
490
460
458
480
518
547
548
523
485
458
456
478
516
544
545
522
483
456
455
478
515
542
542
518
480
454
456
480
518
546
546
523
484
456
455
478
519
548
547
523
485
460
461
485
525
552
551
526
488
460
460
483
520
547
547
522
482
455
457
481
519
545
544
519
482
455
457
483
522
548
546
520
481
454
455
481
520
546
545
521
484
458
460
484
522
547
543
517
479
454
456
482
521
547
544
519
482
458
460
485
524
549
546
521
483
459
461
486
525
550
547
521
482
457
460
486
526
552
550
524
485
460
463
488
525
549
544
519
482
458
461
486
525
548
545
519
481
458
461
487
526
550
544
518
480
457
461
487
525
549
545
517
478
453
457
484
522
546
540
512
473
449
454
482
521
544
538
510
472
448
453
481
520
544
539
512
473
449
455
482
520
541
536
509
471
447
452
479
516
538
531
502
464
443
450
480
519
540
534
505
467
445
451
479
518
539
532
503
465
444
450
479
517
539
532
500
461
440
445
473
511
532
525
496
459
440
448
477
513
533
525
495
458
439
448
477
515
535
526
496
459
440
448
478
515
533
525
495
458
440
449
479
516
536
528
497
459
439
446
476
513
533
524
492
454
435
445
476
513
532
522
491
454
434
442
473
510
527
517
486
448
431
441
472
508
527
518
488
452
435
444
476
514
532
521
490
454
437
445
475
510
527
517
486
448
430
441
473
512
530
518
485
447
431
444
475
513
530
519
488
451
433
443
476
514
531
519
487
450
434
445
476
513
529
517
484
447
431
442
473
510
526
514
484
449
433
444
478
516
531
518
483
444
427
438
470
507
524
513
480
444
430
442
475
512
527
514
481
446
431
443
476
512
527
516
484
448
432
444
477
513
529
518
486
449
433
446
480
516
531
518
485
450
437
450
483
518
531
518
485
451
437
450
483
520
536
523
490
454
440
455
489
526
540
526
493
459
446
459
492
526
538
523
489
455
442
457
491
526
539
525
491
455
443
457
491
526
540
526
491
457
446
461
496
531
541
525
491
458
448
463
497
532
542
527
492
458
446
461
495
530
542
527
493
460
448
463
497
531
542
525
491
457
446
462
497
532
543
528
495
461
450
465
499
534
544
528
494
461
450
468
503
536
546
530
494
461
453
471
508
542
551
532
496
461
450
466
502
537
546
530
495
462
453
469
503
537
546
528
493
461
452
469
504
538
546
528
492
458
449
467
502
537
545
527
491
459
452
470
506
540
549
531
494
462
454
471
506
539
547
529
494
463
457
475
510
544
552
535
498
468
460
478
515
548
556
536
499
469
464
483
518
548
554
535
498
466
459
480
517
550
557
538
499
467
461
480
518
550
556
537
501
470
464
484
523
555
561
542
505
474
468
486
522
552
557
537
501
471
467
487
524
556
562
543
506
474
468
489
527
558
562
541
506
477
473
492
529
558
562
542
505
474
470
491
529
559
564
544
506
477
473
495
532
561
564
543
505
476
473
494
532
562
565
543
505
476
473
495
534
565
568
546
509
480
478
500
537
566
568
545
506
478
478
500
538
566
567
544
506
478
476
498
536
565
567
544
506
478
476
499
537
566
568
544
506
479
478
499
538
566
568
546
508
479
477
499
539
567
568
545
505
477
476
499
539
568
569
547
510
481
481
504
543
572
573
550
512
483
480
502
540
566
566
543
504
477
478
503
543
570
570
546
508
482
481
504
542
568
567
542
503
476
476
501
541
568
567
542
504
478
6
567
561
533
493
471
476
503
543
565
559
531
492
470
476
503
543
564
558
531
493
471
478
506
546
569
565
537
499
477
483
512
551
574
569
542
503
481
486
516
557
578
573
545
508
487
495
525
565
585
578
549
510
491
498
527
566
588
580
552
515
494
499
525
563
585
579
552
515
496
503
533
571
594
588
560
520
497
504
533
572
593
588
559
521
502
508
536
574
594
587
558
520
498
505
534
572
594
587
559
521
499
506
536
574
595
587
558
521
499
506
536
573
594
587
559
523
503
514
544
581
599
590
561
525
504
512
542
580
599
591
560
521
500
509
541
580
600
591
561
523
502
510
540
578
596
587
557
519
499
509
540
577
595
587
558
522
503
513
544
582
600
589
559
521
501
510
541
579
596
586
554
516
496
505
537
574
591
582
551
513
492
499
530
567
586
577
547
508
489
499
531
568
585
575
543
505
489
501
533
570
587
577
545
507
490
501
531
568
585
575
544
506
488
498
529
568
585
574
543
504
486
573
541
565
582
448
447
423
385
358
359
384
421
491
483
500
538
359
361
546
511
497
488
506
544
573
582
564
529
497
489
509
548
577
585
568
531
501
495
514
551
582
589
570
534
501
493
512
549
583
590
571
534
504
497
516
552
581
588
570
534
502
496
516
553
583
590
572
535
506
498
519
556
585
592
574
538
506
499
518
557
589
596
577
539
510
503
523
560
591
597
579
543
509
502
521
559
592
597
579
542
510
504
523
560
592
600
581
543
508
503
525
