358
444
579
657
650
565
434
358
365
449
583
660
654
571
439
362
367
451
587
667
661
578
445
367
371
454
589
668
662
579
446
367
372
454
588
667
659
576
445
367
370
452
588
669
666
585
452
371
373
453
586
666
662
582
450
371
373
453
586
667
663
583
450
369
369
446
578
659
658
580
448
367
367
444
576
658
655
576
445
363
363
440
572
654
653
578
449
367
365
440
571
656
657
582
452
370
369
443
574
658
657
582
449
364
362
436
567
653
652
577
447
362
359
432
563
649
652
579
449
363
360
432
561
647
650
578
448
363
359
430
561
649
653
582
452
367
362
433
562
649
654
583
454
369
364
433
562
650
654
585
456
368
361
431
562
651
657
589
460
373
366
435
566
656
661
591
461
372
365
434
565
655
663
595
467
378
372
440
569
659
665
598
468
376
368
436
566
656
661
594
467
377
367
433
563
656
664
597
468
378
369
435
564
657
666
601
472
380
369
433
561
655
665
600
472
379
369
432
561
656
666
601
473
379
367
431
560
655
665
601
473
379
367
429
558
654
666
604
476
379
365
427
556
652
664
602
474
379
365
426
555
653
664
603
475
377
362
422
551
650
664
604
476
378
362
422
549
647
662
603
477
381
366
423
549
647
663
603
476
378
361
419
545
645
661
604
478
381
364
421
547
647
664
606
479
380
362
420
546
646
663
606
478
378
361
417
543
644
661
605
482
382
363
418
543
645
662
606
482
381
360
414
538
640
659
604
480
378
359
412
536
639
659
607
483
380
359
412
535
638
660
606
481
379
357
410
534
639
661
608
483
379
356
409
533
637
658
606
482
378
354
405
529
635
659
607
484
379
355
405
528
635
658
608
485
380
356
407
530
638
661
609
487
383
358
408
531
640
666
616
494
387
360
408
529
637
661
612
491
385
358
405
527
635
661
614
494
386
358
405
525
634
662
616
495
388
359
404
525
634
662
615
494
385
356
402
523
634
662
615
494
385
355
400
521
633
663
616
497
389
359
403
521
632
662
615
495
386
355
397
517
630
660
616
497
389
357
400
518
630
663
621
503
393
360
401
520
634
668
627
509
399
365
406
523
635
667
625
507
395
361
400
518
631
663
621
503
391
355
395
511
626
661
620
503
391
355
395
513
630
665
626
510
397
361
399
514
627
664
624
508
395
357
395
510
626
664
626
510
395
356
394
509
625
662
623
508
393
355
392
507
624
663
625
511
397
357
393
507
624
662
625
511
395
354
389
502
622
662
626
512
395
354
388
499
618
659
625
513
397
356
391
504
623
665
631
519
400
356
390
503
623
664
628
515
397
355
388
501
622
663
629
517
399
355
387
497
617
660
627
517
399
356
388
498
618
661
628
519
400
356
387
495
615
659
628
520
402
357
388
498
620
665
633
524
405
360
389
497
618
664
633
525
404
357
387
494
616
663
633
524
403
355
384
493
616
663
633
525
404
357
385
491
614
663
634
528
408
359
387
494
617
665
635
529
407
356
383
490
615
666
638
532
410
361
389
494
617
667
639
534
410
359
385
491
615
666
638
532
410
358
384
487
610
662
636
532
409
357
381
483
609
664
641
537
412
359
384
487
611
662
637
535
412
358
382
484
609
662
637
535
411
356
379
480
605
658
636
535
412
358
380
481
606
662
639
539
414
358
379
478
605
662
640
540
416
359
381
481
607
663
641
541
414
355
374
473
600
658
637
538
414
355
374
472
601
661
641
543
418
358
376
471
598
657
639
542
416
356
376
474
602
663
645
549
422
360
379
476
604
663
644
547
420
358
376
473
602
662
643
546
419
357
375
472
601
663
645
550
422
360
376
471
600
661
643
547
420
359
376
472
601
664
647
553
427
362
376
469
598
662
645
552
425
361
375
467
594
658
642
551
425
360
373
464
592
657
643
553
426
361
374
463
592
658
644
554
426
360
372
462
592
660
645
553
425
358
370
461
591
658
644
554
426
359
370
459
590
659
647
558
428
359
370
460
590
659
647
558
427
357
368
458
589
660
648
559
431
361
371
459
589
659
647
559
431
361
371
457
588
659
650
564
435
363
372
458
589
660
651
564
435
363
370
455
585
657
649
564
435
364
371
454
584
658
649
563
434
362
370
454
585
658
649
565
437
365
372
457
588
663
655
572
442
367
372
454
585
660
653
570
440
365
371
453
585
662
656
572
441
364
369
449
580
656
651
569
439
362
366
446
576
655
650
569
439
362
365
446
577
655
651
572
445
368
372
450
581
659
653
573
443
366
369
447
578
657
654
576
445
365
366
444
575
654
652
574
444
364
366
445
578
659
656
579
449
369
369
446
577
658
656
580
450
369
368
445
576
660
658
581
451
369
369
444
574
656
656
581
452
370
368
442
572
654
656
583
453
369
368
441
572
655
655
583
454
370
366
438
569
654
655
581
450
365
362
434
564
650
651
578
448
361
355
426
554
640
643
572
444
359
355
425
554
640
645
575
445
358
351
420
552
640
646
577
448
361
354
423
552
640
645
577
448
361
355
424
555
644
651
584
454
365
358
428
559
648
655
587
458
368
361
429
559
650
657
589
461
372
364
430
559
650
656
588
459
370
362
428
558
649
659
594
466
376
367
432
561
653
661
596
467
376
367
432
561
654
662
597
467
377
368
432
561
654
662
597
469
376
364
428
556
651
662
600
472
378
366
428
556
651
661
597
468
374
364
428
556
651
661
597
469
375
364
426
555
650
662
601
473
378
365
426
556
654
667
605
478
384
369
429
558
655
668
607
479
383
366
425
552
649
662
602
476
380
364
423
553
652
666
606
479
384
367
425
551
649
664
605
478
380
363
420
545
644
660
603
478
380
363
419
545
645
661
604
478
379
361
416
542
642
660
603
478
379
361
418
544
645
663
608
481
380
361
416
542
644
662
606
480
379
361
416
543
644
663
608
483
382
361
414
540
643
662
608
483
381
359
412
537
639
660
606
482
380
359
412
537
641
662
610
485
382
359
412
537
642
663
610
486
383
359
411
535
640
662
610
486
383
359
409
534
640
662
611
487
383
358
406
529
637
663
614
491
386
360
409
531
637
661
611
488
383
357
406
529
636
661
611
488
382
358
407
529
636
661
613
491
385
357
404
526
632
659
611
489
382
355
402
524
632
660
612
490
384
356
402
525
635
663
616
496
388
359
404
526
635
663
617
496
389
360
405
526
636
665
620
499
390
359
403
523
633
663
617
497
388
357
402
522
633
664
619
500
391
360
402
521
633
664
621
501
390
358
401
519
631
663
619
500
389
356
398
518
632
665
623
505
393
359
399
516
629
662
621
502
391
356
397
515
629
664
624
506
394
359
399
517
631
665
625
507
395
359
398
514
629
664
623
506
393
357
397
514
629
665
625
508
396
359
398
513
629
665
626
511
397
359
397
512
628
665
626
510
396
357
393
507
622
659
622
508
393
354
391
505
622
660
623
509
395
354
389
502
620
661
625
510
395
355
391
504
623
663
627
514
397
356
391
504
623
664
629
516
400
359
392
502
619
659
625
515
399
358
392
502
621
662
627
516
398
355
388
499
619
663
629
519
401
357
389
500
620
663
631
521
403
358
390
499
620
667
635
525
406
360
390
499
621
665
634
525
406
360
390
499
619
663
632
524
405
358
388
497
619
664
632
525
405
358
387
496
618
666
636
528
409
361
389
497
618
666
638
530
409
360
389
496
618
666
636
529
408
358
384
491
614
663
635
528
407
357
384
491
614
662
633
527
406
356
383
488
611
662
636
531
409
357
384
489
614
666
640
535
413
361
387
492
617
668
641
537
412
358
382
485
610
662
636
534
411
358
382
484
608
660
634
531
408
354
379
482
607
661
636
533
411
357
380
483
608
663
640
538
414
359
381
482
607
661
638
537
413
357
380
480
605
661
638
537
414
357
379
480
605
662
638
537
412
356
378
479
607
663
641
541
416
357
376
475
601
659
639
541
417
359
378
476
601
661
641
543
418
359
379
476
602
662
643
546
420
359
377
473
600
660
642
544
419
359
377
475
602
662
643
547
423
362
378
474
600
660
643
548
421
359
376
472
602
663
645
551
425
361
377
470
597
661
644
548
420
357
373
467
596
660
643
548
422
359
375
468
596
660
644
551
425
362
377
469
598
663
648
556
430
365
379
470
598
664
649
555
428
362
375
467
596
662
647
556
429
362
373
462
592
660
647
558
430
363
375
464
593
661
647
556
428
361
372
463
593
662
650
561
433
364
375
464
593
661
648
559
431
361
371
459
590
660
650
561
431
360
370
458
588
659
648
559
430
359
367
454
586
658
648
561
433
362
371
458
587
659
649
562
433
359
368
454
586
659
650
564
437
364
371
456
587
659
650
565
436
361
368
451
581
655
648
563
434
359
366
450
581
656
651
568
438
362
367
452
584
660
652
568
440
364
368
450
581
657
651
570
442
366
371
452
583
659
653
570
441
364
368
448
577
654
649
567
437
360
364
445
576
657
653
573
444
365
367
447
577
655
651
571
442
364
366
445
576
656
653
574
444
365
367
446
579
660
656
577
446
365
366
442
573
653
652
574
444
363
363
441
573
654
653
576
446
365
366
442
572
655
655
578
449
367
366
442
574
657
656
579
450
368
365
439
569
652
653
578
449
366
364
438
569
653
654
580
450
366
364
437
568
652
653
579
449
365
364
438
570
656
658
584
454
368
365
436
567
653
654
582
453
367
362
434
566
654
656
584
454
369
365
437
567
653
657
587
457
370
365
435
565
653
657
586
456
369
364
434
564
654
659
588
459
371
364
434
564
653
658
589
461
373
367
435
565
653
658
589
460
371
364
431
560
650
657
588
458
368
359
426
555
647
655
588
459
367
359
428
558
650
658
591
463
373
364
428
557
648
656
590
462
370
360
424
553
647
656
591
463
371
360
425
555
649
658
592
464
371
360
423
552
647
656
592
464
371
359
422
550
644
655
593
466
372
360
423
552
648
659
596
469
376
365
427
554
648
659
596
469
374
362
423
552
648
662
602
476
381
368
429
556
651
663
603
476
379
365
425
551
649
662
603
479
383
368
427
553
653
668
609
480
382
365
422
548
649
664
605
480
383
365
423
550
649
665
608
482
383
365
420
546
646
661
603
476
375
355
410
538
639
656
600
473
372
353
409
534
635
652
595
470
371
354
410
536
639
658
601
476
375
356
410
536
639
658
604
481
381
361
415
541
644
663
608
482
380
360
414
539
642
660
605
480
378
359
414
538
642
663
611
486
383
361
414
538
642
662
608
484
381
358
409
534
639
660
608
484
381
358
411
538
645
666
612
488
385
362
414
537
642
663
611
487
382
358
408
532
639
662
611
487
383
359
409
532
639
663
613
488
380
355
404
529
637
662
612
490
384
356
404
526
635
659
610
488
382
356
406
527
636
663
615
494
386
358
406
528
637
665
617
497
390
362
407
529
639
665
618
497
390
361
405
525
636
665
618
499
392
362
407
526
635
662
615
495
386
355
399
520
631
661
617
498
390
360
404
524
634
663
617
497
388
355
398
519
632
662
618
498
390
359
401
519
630
661
617
499
390
358
401
518
630
663
619
500
389
356
397
515
629
660
617
499
388
355
396
513
626
660
618
500
388
354
396
513
627
661
619
501
388
353
394
511
627
663
625
509
397
360
400
516
630
664
624
507
394
358
397
513
629
665
625
509
397
360
398
513
629
665
626
512
396
358
397
512
628
664
626
511
396
358
396
511
630
669
631
516
402
363
398
510
627
666
630
517
401
360
394
506
623
662
627
516
399
358
393
506
625
665
630
518
401
358
392
504
623
664
628
516
399
357
391
501
619
660
626
516
399
357
390
501
620
662
629
518
401
357
389
499
619
663
631
521
404
361
393
503
623
665
632
521
402
356
388
497
618
662
630
521
402
356
387
496
616
660
629
520
400
353
384
493
616
662
632
526
407
361
391
499
620
665
635
528
408
361
391
499
621
667
637
529
407
358
387
494
616
663
633
526
406
359
387
493
615
664
635
527
407
358
383
488
611
662
636
531
411
362
388
493
617
667
640
534
411
360
387
487
641
557
432
368
381
473
600
665
652
560
433
368
380
471
598
662
649
557
431
366
379
469
597
663
650
559
433
367
378
467
593
659
647
558
432
366
376
466
595
662
651
563
437
369
379
467
595
662
650
561
435
368
378
464
592
660
652
564
437
367
377
465
595
663
653
565
437
367
375
463
592
662
655
569
441
370
376
462
591
662
653
566
438
367
374
459
588
660
653
569
442
370
376
460
590
662
655
572
444
371
377
461
590
663
656
572
443
368
373
456
587
662
656
574
445
371
376
459
587
662
657
576
448
374
378
458
587
662
658
575
446
370
372
451
581
657
653
572
444
368
370
449
580
657
654
575
447
370
371
448
579
659
658
581
452
374
374
451
580
658
657
579
451
373
374
450
579
660
661
584
455
375
374
449
579
659
661
586
457
377
374
449
578
659
657
581
453
374
372
445
575
657
658
584
454
372
370
444
572
653
655
582
453
370
368
442
573
657
661
588
459
376
373
446
576
660
664
591
462
378
371
442
571
656
660
590
462
377
371
441
570
656
662
591
463
377
371
441
570
656
661
591
463
377
368
436
565
652
658
589
459
371
363
432
562
652
659
592
464
377
369
437
565
654
661
594
467
381
372
438
566
653
661
595
466
376
367
433
562
652
662
597
470
380
369
435
565
656
666
600
472
382
370
434
563
655
665
600
472
382
370
433
561
654
664
601
475
384
372
434
562
655
667
604
476
383
369
431
558
652
664
601
473
380
366
427
556
651
666
605
479
386
372
431
558
654
667
606
479
383
366
426
554
650
664
605
478
383
367
426
552
649
664
605
480
384
367
424
551
649
666
608
483
386
367
423
549
648
665
609
483
387
368
423
550
648
665
609
484
386
367
423
550
649
667
612
489
392
374
428
553
653
671
615
490
392
372
424
549
650
669
615
491
391
371
424
548
650
670
616
493
394
372
424
549
652
673
619
495
395
372
422
546
649
671
618
493
390
367
418
542
646
670
619
495
392
367
417
541
645
669
619
495
392
366
414
537
641
666
617
494
391
365
414
536
641
666
617
493
388
360
407
530
636
662
615
493
386
357
403
524
630
656
610
489
384
356
401
521
625
653
608
488
383
355
400
520
627
656
613
495
389
358
402
523
631
660
614
494
386
355
398
516
623
653
609
489
381
348
388
504
613
643
598
478
369
336
374
490
598
627
585
469
362
331
370
486
595
625
583
466
357
325
364
479
589
621
581
465
356
322
359
473
583
616
575
458
349
314
351
464
574
607
567
453
344
310
345
457
566
600
562
449
341
304
339
450
558
592
554
442
333
298
332
443
554
589
553
442
334
298
331
441
552
589
555
446
338
303
339
450
562
599
564
454
345
307
340
448
559
596
562
453
343
305
338
447
558
596
562
455
346
309
341
449
562
603
571
464
355
317
349
457
571
611
578
471
361
320
351
458
571
612
582
476
364
322
350
455
566
605
575
470
359
317
345
449
562
605
577
474
364
323
351
455
567
609
580
476
363
319
346
447
560
603
575
473
361
316
340
441
554
596
568
467
358
315
340
440
553
597
570
468
356
313
339
438
549
592
567
469
359
315
338
437
549
594
568
469
357
310
331
427
538
582
557
460
351
305
328
423
534
579
556
461
352
305
325
417
527
574
552
458
349
303
323
414
520
564
543
452
345
299
318
407
511
556
534
444
339
293
310
394
494
537
519
433
330
284
299
377
476
520
498
413
311
266
283
362
458
499
479
399
300
254
269
344
438
478
458
378
282
237
248
319
411
452
435
358
266
222
233
302
389
428
411
337
248
205
214
278
364
404
390
318
230
187
196
260
343
381
367
300
214
171
180
240
321
358
344
278
193
151
160
220
299
337
324
261
180
139
148
207
285
321
310
249
173
134
142
199
277
316
305
246
170
130
138
192
268
306
300
245
170
132
140
193
269
308
302
250
177
138
145
198
273
312
305
253
183
145
150
200
271
308
301
253
184
148
155
204
274
309
303
254
186
150
156
204
273
310
304
257
189
154
159
207
277
315
312
268
204
170
178
228
298
338
336
295
234
201
211
262
334
377
381
350
298
276
294
352
435
496
528
538
631
1023
1023
1023
1023
1023
1023
1023
1023
1023
1023
1023
1023
1023
1023
1023
1023
1023
1023
879
631
347
184
99
55
31
18
11
7
4
3
2
2
2
1
1
1
1
1
1
1
1
1
1
1
1
1
1
1
1
1
1
1
1
1
1
1
1
1
1
1
1
1
1
1
1
1
1
1
1
1
1
1
1
1
1
1
1
1
1
1
1
1
1
1
1
1
1
1
1
1
1
1
1
1
1
1
0
1
1
1
1
1
1
1
1
1
1
1
1
1
0
1
1
1
1
1
1
1
1
1
1
1
1
1
1
1
1
1
1
1
1
1
1
1
1
1
1
1
1
1
1
1
1
0
0
0
0
1
1
1
1
1
1
1
1
1
1
1
1
1
0
1
1
1
114
515
1016
1023
1023
1023
1023
1023
1023
1023
1023
1023
1023
1023
1023
1023
1023
1023
1023
1023
1023
1023
1023
1023
1023
1023
1023
1023
1023
1023
1023
1023
1023
1023
1023
1023
1023
1023
1023
1023
1023
1023
1023
1023
1023
1023
1023
1023
1023
1023
1023
1023
1023
1023
1023
1023
1023
1023
1023
1023
1023
1023
1023
1023
1023
1023
1023
1023
1023
1023
1023
1023
1023
1023
1023
1023
1023
1023
1023
1023
1023
1023
1023
1023
1023
1023
1023
1023
1023
1023
1023
1023
1023
1023
1023
1023
1023
1023
1023
1023
1023
1023
1023
1023
1023
1023
1023
1023
1023
1023
1023
1023
1023
1023
1023
1023
1023
1023
1023
1023
1023
1023
1023
1023
1023
1023
1023
1023
1023
1023
1023
1023
1023
1023
1023
1023
1023
1023
1023
1023
1023
1023
1023
1023
1023
1023
1023
1023
1023
1023
1023
1023
1023
1023
1023
1023
1023
1023
1023
1023
1023
1023
1023
1023
1023
1023
1023
1023
1023
1023
1023
1023
1023
1023
1023
1023
1023
1023
964
875
845
873
961
1023
1023
1023
1023
1023
1023
1023
1023
1023
1023
1023
1023
1023
1023
1023
1023
1023
1023
1023
1023
1023
1023
1023
1023
1023
1023
1023
1023
1023
1023
1023
1023
1023
1023
1023
1023
1023
1023
1023
1023
1023
1023
1023
1023
1023
1023
1023
1023
1023
1023
1023
1023
1023
1023
1023
1023
1023
1023
1023
1023
1023
1023
1023
1023
1023
1023
1023
1023
1023
1023
1023
1023
1023
1023
1023
1023
1023
1023
1023
1023
1023
1023
1023
1023
1023
1023
1023
1023
1023
1023
1023
1023
1023
1023
1023
1023
1023
1023
1023
1023
1023
1023
1023
1023
1023
1023
1023
1023
1023
1023
1023
1023
1023
1023
1023
1023
1023
1023
1023
1023
1023
1023
1023
1023
1023
1023
1023
1023
1023
1023
1023
1023
1023
1023
1023
1023
1023
1023
1023
1023
1023
1023
1023
1023
1023
1023
1023
1023
1023
1023
1023
1023
1023
1023
1023
1023
1023
1023
1023
1023
1023
1023
1023
1023
1023
1023
1023
1023
1023
1023
1023
1023
1023
1023
1023
1023
1023
1023
1023
1023
1023
1023
1023
1023
1023
1023
1023
1023
1023
1023
1023
1023
1023
1023
1023
1023
1023
1023
1023
1023
1023
1023
1023
1023
1023
1023
1023
1023
1023
1023
1023
1023
1023
1023
937
655
351
187
102
56
32
18
11
7
5
3
3
2
2
1
1
1
1
1
1
1
1
1
1
1
1
1
1
1
1
1
1
3
75
161
242
329
335
246
169
200
280
337
305
176
91
48
26
14
8
5
3
2
2
1
1
1
1
1
1
1
1
1
1
1
1
1
1
1
1
1
31
145
295
435
494
482
496
552
598
636
680
769
871
920
953
980
1023
1023
1022
1005
1020
1023
1023
1023
1023
1023
1023
1023
1023
1023
1023
1023
1023
1023
1023
1023
1023
1023
1023
1023
1023
1023
1023
1023
1023
1023
1023
1023
1023
1023
1023
1023
1023
1023
1023
1023
1023
1023
1023
1023
1023
1023
1023
1023
1023
1023
1023
1023
1023
1023
1023
1023
1023
1023
1023
1023
1023
1023
1023
1023
1023
1023
1023
1023
1023
1023
1023
1023
1023
1023
1023
1023
1023
1023
1023
1023
1023
1023
1023
1023
1023
1023
1023
1023
1023
1023
1023
1023
1023
1023
1023
1023
1023
1023
1023
1023
1023
1023
1023
1023
1023
1023
1023
1023
1023
1023
1023
1023
1023
1023
961
854
774
713
640
549
432
360
337
295
216
155
101
56
31
18
11
7
4
3
2
2
2
1
1
1
1
1
1
1
1
1
1
1
1
1
1
1
1
1
1
1
1
1
1
1
1
1
1
1
1
1
1
1
1
1
1
1
1
1
1
1
1
1
1
1
1
1
1
1
1
1
1
1
1
1
1
1
1
1
1
1
1
1
1
1
1
1
1
1
1
1
1
1
1
1
1
1
1
1
1
1
1
1
1
1
1
1
1
1
1
0
1
1
1
0
1
1
1
1
1
1
1
1
1
1
0
1
1
1
1
1
1
1
1
1
1
1
1
0
0
0
1
1
1
1
1
1
1
1
1
1
1
0
1
1
0
1
1
1
1
1
1
1
1
1
1
1
1
1
1
0
1
1
1
1
1
1
1
1
1
1
1
1
1
1
1
1
1
1
1
1
1
1
1
1
1
1
1
1
1
1
1
0
1
1
1
1
1
1
1
1
1
1
1
0
1
0
1
0
1
1
0
1
1
1
0
1
1
1
1
1
1
1
1
1
1
1
1
1
1
1
1
1
1
1
1
1
1
1
1
0
1
1
1
1
1
1
0
1
1
1
0
1
1
0
0
1
1
1
1
1
1
1
1
1
0
1
0
1
1
1
1
1
1
1
1
1
0
1
1
1
1
22
47
29
14
7
4
2
1
1
1
1
1
1
1
1
1
1
1
1
1
1
1
1
1
1
1
1
0
1
1
1
0
1
0
1
1
1
0
1
1
1
1
1
1
1
0
1
1
1
1
1
0
1
1
1
1
1
1
1
1
1
1
1
1
1
1
1
0
1
1
1
1
1
1
1
1
0
1
0
1
1
1
1
1
1
1
1
0
1
1
0
1
1
1
1
1
1
1
1
1
1
1
1
1
1
1
1
1
1
1
1
1
1
0
1
1
1
1
1
0
0
1
1
1
1
1
1
1
1
1
1
1
1
1
0
1
1
1
1
1
1
0
1
1
1
1
0
1
0
1
1
1
1
1
1
1
1
1
1
1
0
1
1
1
1
1
1
1
1
1
1
0
1
1
1
1
1
1
0
1
1
1
0
0
1
1
0
1
1
1
1
1
1
1
1
1
1
1
1
1
1
0
0
0
1
1
1
1
1
0
1
1
1
1
1
1
1
1
0
1
0
1
1
1
1
1
1
1
1
1
1
1
0
1
0
0
1
1
1
1
1
1
1
1
0
1
0
1
1
0
0
1
1
1
0
1
0
1
1
1
1
1
1
1
1
1
1
1
1
1
1
1
1
1
1
1
0
1
0
1
1
1
1
1
1
1
1
1
1
1
1
1
1
1
1
1
1
1
1
1
1
1
1
1
1
1
1
4
5
3
2
1
1
1
1
1
1
9
6
3
2
1
1
3
15
8
4
3
2
1
7
29
32
20
24
27
15
7
4
3
3
2
1
1
1
1
1
1
1
14
40
49
36
23
13
9
5
3
2
1
1
1
20
44
43
45
46
38
36
25
19
52
80
96
102
98
86
74
75
83
116
165
219
287
352
419
492
547
559
513
439
361
247
149
79
42
23
13
7
4
14
56
92
92
92
88
75
76
78
85
105
126
150
168
151
116
90
95
92
73
87
128
160
169
154
151
146
134
160
171
153
147
164
184
201
210
221
224
219
207
186
165
161
167
174
193
208
219
211
208
226
239
238
245
251
259
270
263
266
267
255
255
276
294
295
312
311
294
303
310
311
327
325
334
337
334
324
323
335
342
327
328
342
359
374
373
355
333
334
341
351
361
366
358
351
361
365
354
345
353
365
349
305
283
293
292
297
305
305
291
288
268
236
227
221
211
193
165
159
163
176
191
196
199
197
192
167
140
133
152
163
175
185
196
217
225
208
203
216
242
245
212
189
197
218
227
225
226
240
257
267
276
287
301
283
276
260
265
295
293
284
267
251
251
267
274
260
271
281
284
280
263
250
260
262
277
289
296
280
277
287
285
283
293
290
296
304
297
287
282
273
275
264
276
278
272
264
263
262
264
254
238
229
227
231
247
267
281
283
282
276
291
282
241
227
221
210
207
208
206
200
207
205
208
220
229
230
217
198
202
220
245
240
238
247
259
264
251
254
266
266
265
260
244
231
240
246
238
241
237
242
250
262
264
260
235
229
232
232
260
298
306
281
267
257
252
253
250
249
246
244
234
224
231
242
258
265
248
249
251
251
249
243
254
260
285
304
291
286
271
251
262
262
266
249
238
248
273
280
263
253
258
269
278
273
280
284
292
322
341
324
281
253
272
313
335
340
332
323
313
316
319
308
295
304
328
353
357
355
349
334
319
316
315
324
334
345
369
380
397
370
331
321
344
358
353
354
361
371
374
368
371
363
355
358
344
326
309
317
352
369
359
338
335
342
344
332
337
345
362
355
328
334
357
367
363
379
423
503
599
704
779
818
833
805
742
648
524
402
303
222
169
143
138
154
181
213
215
186
175
190
205
223
239
249
251
229
198
165
163
174
179
183
189
201
208
207
222
239
248
253
266
284
286
261
271
298
309
328
327
334
344
351
352
354
364
365
371
381
390
389
407
422
420
425
431
429
438
449
454
460
488
495
493
480
454
431
418
446
459
462
477
484
481
487
510
523
531
529
536
537
551
564
572
585
603
600
580
575
592
603
615
625
623
633
642
629
619
614
631
630
607
608
610
605
609
606
600
613
636
637
607
579
572
566
552
526
497
479
485
522
530
499
478
471
474
486
491
482
466
452
449
452
463
484
496
501
489
477
462
457
458
473
477
477
479
481
463
457
457
474
484
481
479
472
491
506
509
504
505
509
507
503
512
527
511
499
506
506
502
510
520
529
524
517
520
501
491
485
493
505
509
526
542
541
536
519
514
523
523
525
535
524
508
493
486
484
502
525
515
479
470
470
478
484
486
488
472
477
497
502
497
503
498
485
473
490
510
512
513
499
481
465
470
482
485
484
481
489
504
512
504
501
489
490
497
488
492
497
503
504
529
537
521
508
505
515
519
514
496
484
491
511
533
541
544
550
533
494
478
479
484
494
498
509
510
498
497
490
484
488
491
476
453
451
473
504
512
502
486
448
420
425
458
492
498
494
479
453
439
432
429
459
479
493
483
461
443
444
445
439
447
464
500
526
523
506
486
473
485
483
466
460
465
471
482
484
482
484
507
507
474
453
431
422
429
432
443
452
455
468
472
471
482
491
496
492
483
468
476
481
481
483
494
518
523
489
466
476
480
476
472
486
481
482
487
485
496
518
509
489
481
476
478
484
486
475
459
444
445
478
475
470
471
455
437
429
440
421
401
404
406
431
467
480
487
513
551
609
692
769
837
886
909
890
839
769
663
559
477
382
304
261
239
236
261
282
310
327
330
351
385
407
405
415
409
414
430
425
412
407
406
417
431
438
434
428
437
450
448
438
443
440
435
447
468
478
484
465
463
451
439
445
451
457
462
470
482
502
509
498
491
480
463
459
463
464
475
488
497
506
512
513
517
529
524
506
506
507
531
557
536
531
524
502
513
536
545
566
580
583
577
573
565
566
565
567
569
568
584
606
607
596
584
572
581
590
568
552
540
561
575
573
565
551
534
526
500
494
498
524
539
535
528
522
489
459
438
436
447
446
445
439
421
399
367
369
385
387
387
394
398
402
404
394
369
352
353
359
354
366
371
371
384
384
370
361
358
372
373
381
404
418
426
419
413
410
416
405
413
426
438
434
417
426
431
432
438
434
426
414
415
412
408
424
468
476
472
483
486
464
443
430
436
442
455
453
448
434
437
453
454
450
428
437
436
433
440
445
446
442
449
467
459
447
439
443
460
454
443
438
438
434
443
447
442
436
434
446
429
413
424
428
434
440
432
429
422
444
454
450
465
465
454
440
416
403
395
407
417
431
440
444
446
458
480
476
462
454
451
438
433
430
412
422
440
451
480
500
493
483
471
450
463
460
454
454
455
476
475
449
450
470
477
467
434
434
451
455
465
487
495
493
470
451
448
441
449
473
519
532
506
470
463
479
490
486
481
480
488
486
491
502
502
496
494
500
482
469
473
480
506
517
511
513
521
527
542
549
530
522
510
494
473
468
492
501
503
499
499
486
475
489
515
520
528
541
537
514
500
494
500
508
497
497
504
514
515
507
512
523
529
530
525
503
507
527
524
515
522
536
550
540
506
496
489
501
512
510
499
478
457
457
457
459
484
493
472
463
468
477
477
465
452
433
443
459
515
572
639
724
818
903
937
919
890
843
748
632
528
447
375
322
290
279
276
289
309
325
346
367
379
378
373
390
418
439
428
420
416
410
393
394
416
416
415
420
426
443
449
444
439
442
454
450
428
413
402
401
409
442
448
432
424
422
426
444
461
467
469
453
448
453
463
477
479
465
460
473
482
472
468
484
494
486
487
494
489
482
485
490
499
495
499
507
508
501
494
496
504
504
499
512
529
534
534
546
570
590
586
567
549
546
565
566
555
559
554
526
513
525
531
527
529
515
500
489
483
489
497
493
483
477
468
452
441
448
461
462
451
444
421
393
379
381
372
370
373
369
345
344
338
320
311
326
332
321
308
313
317
318
326
343
350
345
329
325
334
343
327
318
324
339
344
347
356
350
351
367
367
361
358
361
360
350
345
353
375
389
388
378
373
386
382
371
383
394
403
407
394
380
369
367
362
354
366
396
420
430
410
395
383
376
375
376
358
363
364
361
364
369
374
399
409
418
419
425
429
402
363
359
363
372
383
399
417
424
413
396
391
381
373
382
408
431
430
413
393
392
407
415
418
422
424
430
445
460
462
459
456
447
446
449
419
420
435
437
432
419
420
429
430
445
464
476
471
475
466
460
469
468
463
459
453
466
478
474
473
466
472
470
480
486
462
453
459
475
488
490
492
488
487
475
480
494
496
487
480
481
477
489
487
477
474
473
495
512
510
495
491
480
485
494
463
445
437
431
430
440
434
440
440
435
437
438
448
477
486
492
492
478
451
439
445
455
452
456
468
478
474
499
503
488
478
473
487
497
502
518
517
504
488
477
481
494
506
501
496
500
504
502
504
506
516
510
495
494
519
548
552
543
535
524
513
508
502
508
530
515
505
505
512
500
498
500
513
529
539
541
534
508
478
456
459
470
473
458
458
462
462
457
445
447
447
450
449
453
481
519
546
597
676
767
853
926
967
962
922
860
776
651
551
466
371
333
328
332
343
356
384
406
407
422
438
443
458
462
461
447
428
429
441
461
463
454
459
488
494
487
487
483
484
470
482
474
472
480
481
501
533
539
525
515
515
506
496
487
498
503
500
507
518
530
534
525
526
525
526
536
541
527
531
541
542
543
538
536
545
548
547
557
562
567
564
546
556
564
565
560
525
513
533
528
542
572
596
605
601
608
614
612
595
595
595
588
588
577
577
582
589
597
595
601
602
573
555
559
576
580
569
574
577
579
558
529
505
491
484
485
477
471
475
457
446
458
470
473
456
427
400
377
381
374
380
398
404
412
423
423
420
415
398
378
380
383
385
379
387
405
413
429
434
414
393
395
419
430
415
426
429
432
432
421
425
431
430
427
435
448
457
466
458
448
457
468
454
466
481
481
482
486
493
478
464
460
453
454
453
460
468
475
466
451
445
460
473
481
477
468
471
462
448
438
472
495
499
482
471
478
479
481
485
477
489
514
519
511
482
448
442
450
448
450
468
508
533
516
500
499
489
492
494
494
484
473
476
483
501
517
520
505
517
544
537
528
522
516
496
486
478
470
487
513
527
523
523
522
520
516
513
511
493
472
474
510
534
527
513
496
482
488
502
528
534
529
504
493
491
498
503
510
499
484
492
494
492
495
509
525
528
515
510
517
524
518
502
493
498
511
518
522
516
514
507
497
504
509
528
511
479
472
484
504
527
521
504
515
545
559
556
545
546
524
508
515
520
526
532
533
513
501
506
516
520
540
558
566
557
521
510
527
545
552
548
549
556
556
542
515
516
549
579
588
567
535
524
530
526
546
574
580
555
529
536
537
532
543
559
564
554
542
543
564
554
548
543
550
558
540
540
562
586
585
555
523
524
527
530
525
524
522
518
517
526
536
521
506
520
538
520
506
512
511
521
541
573
625
696
759
823
903
968
1002
981
924
831
728
618
508
436
381
352
341
337
335
351
380
401
418
437
455
464
468
466
481
496
473
455
464
470
468
467
459
454
470
483
499
507
501
495
465
446
463
485
491
486
479
481
473
476
491
494
505
516
503
499
498
487
479
481
476
475
469
467
483
497
497
482
486
477
467
469
486
493
491
514
536
538
538
530
492
487
502
510
515
534
537
536
544
546
541
544
547
549
553
559
546
529
544
582
601
609
598
584
574
560
558
564
566
567
566
569
567
561
559
562
559
546
521
512
504
506
509
482
473
473
484
484
452
438
432
431
445
437
411
387
369
378
379
389
395
404
406
392
368
348
345
337
352
373
371
370
378
387
390
399
394
392
391
385
381
401
427
439
424
414
419
425
428
456
462
448
427
408
404
400
401
424
441
462
505
507
483
471
459
446
451
437
428
442
465
487
503
493
482
476
461
461
463
451
437
437
460
487
496
491
483
453
454
466
487
503
499
486
480
473
477
486
503
496
482
470
456
462
470
477
488
507
530
529
519
501
469
443
448
461
469
476
500
516
527
537
515
512
518
518
499
474
459
458
468
481
486
492
510
527
521
496
486
496
513
520
520
521
509
506
506
506
506
512
518
532
507
485
494
491
497
519
533
525
509
497
499
509
517
530
549
550
517
489
484
494
502
526
526
520
506
504
513
521
527
514
515
523
509
496
488
509
534
547
544
537
537
542
553
538
523
506
490
502
505
499
509
530
542
542
527
499
486
494
502
494
508
531
537
545
547
532
519
510
506
514
523
528
536
532
523
524
527
515
500
495
501
515
516
518
525
528
530
527
527
531
534
529
530
541
519
495
510
538
545
539
546
553
551
543
524
523
532
528
516
514
506
495
498
512
512
502
515
516
518
524
513
505
502
499
513
517
504
492
487
490
503
507
542
583
647
730
824
907
969
988
947
865
786
698
587
491
408
362
327
321
310
314
346
379
395
407
426
444
469
490
483
455
443
437
449
464
458
445
442
456
490
500
489
484
481
482
479
470
466
467
481
496
511
519
507
484
491
527
542
523
520
511
514
508
509
520
539
546
545
546
540
534
515
515
522
532
539
547
540
535
535
536
541
552
565
577
565
538
539
559
577
592
613
622
604
583
573
582
583
580
587
618
633
621
609
601
608
618
623
620
603
600
621
623
624
637
633
608
593
575
570
566
559
561
564
566
567
568
562
556
553
541
520
495
481
474
483
488
491
482
455
435
423
417
410
399
395
394
406
421
411
400
398
394
390
403
418
414
404
410
427
443
447
454
444
430
424
433
431
433
445
461
470
464
452
440
446
455
460
470
467
454
452
465
480
479
475
467
467
478
465
463
478
481
477
484
497
516
509
496
489
480
475
482
482
483
485
492
500
497
493
489
468
469
469
458
460
482
485
477
463
454
482
511
519
494
489
503
502
488
494
496
499
512
521
526
516
485
467
464
465
475
481
474
469
467
471
488
499
504
510
508
510
518
504
486
491
492
506
496
492
496
500
494
479
476
484
496
505
500
487
484
494
508
499
494
500
502
499
506
527
534
540
521
505
501
494
479
484
491
490
492
493
501
509
509
515
504
492
493
501
506
509
513
515
523
524
514
504
498
492
491
497
505
513
530
515
515
508
505
502
505
521
517
515
520
525
509
506
498
493
498
498
502
501
501
506
506
505
511
517
524
534
525
512
490
482
496
500
504
518
523
524
516
508
504
511
517
516
500
495
491
497
489
493
509
519
520
511
512
517
524
517
528
534
529
526
517
527
536
544
531
517
527
540
544
537
535
522
520
532
528
518
516
523
528
513
522
534
523
510
527
513
500
496
485
478
478
483
482
480
498
508
502
502
494
499
520
570
640
713
798
887
944
966
957
917
848
774
683
572
439
357
335
325
304
301
328
343
349
381
407
434
446
467
476
472
458
447
459
470
475
478
475
474
476
463
466
483
487
487
487
488
482
500
518
506
480
463
472
480
486
518
536
543
543
538
523
501
501
524
517
513
525
532
527
533
544
546
545
561
548
526
522
541
544
530
525
528
547
555
550
554
557
564
567
567
568
564
558
567
568
575
595
603
599
589
581
578
588
597
606
620
614
600
596
609
608
600
612
616
612
609
605
606
596
569
562
556
568
577
572
571
572
561
551
528
493
478
475
468
450
435
438
445
445
435
413
404
404
397
411
414
418
422
417
403
390
390
389
384
388
381
380
380
389
396
406
421
416
393
398
431
456
452
412
403
403
399
394
401
421
440
450
463
478
482
479
463
435
426
424
431
455
479
475
464
452
455
459
449
442
439
441
454
467
471
465
468
465
474
485
489
456
439
456
474
480
486
489
487
472
450
453
463
472
479
466
457
457
475
483
490
487
473
464
470
479
474
475
489
492
505
502
477
463
461
476
479
468
474
503
522
512
485
473
477
459
463
489
504
509
508
499
483
475
481
485
485
498
509
519
522
527
527
524
520
512
487
479
486
493
506
512
505
506
512
514
509
506
510
510
506
506
512
517
515
510
500
502
511
530
528
517
513
517
522
519
510
515
494
494
505
513
505
500
518
531
528
510
494
483
483
494
516
531
527
515
510
513
517
516
519
514
520
510
500
509
512
505
504
505
507
520
524
522
521
522
519
501
492
487
485
500
513
516
514
516
519
506
496
497
523
523
507
497
504
516
506
506
512
519
511
490
474
475
490
513
530
519
511
511
512
516
533
540
528
515
503
494
480
484
514
531
526
520
528
528
517
508
515
518
531
540
535
519
516
521
522
523
534
533
521
517
518
518
502
493
497
513
523
520
508
506
498
500
502
499
497
505
505
501
504
532
571
628
707
801
897
971
989
982
943
873
780
662
545
442
376
344
326
308
319
345
359
376
394
417
440
455
456
452
445
456
474
492
493
475
466
456
434
434
460
497
509
477
447
455
473
494
496
495
490
500
501
499
501
507
505
510
522
530
517
493
481
474
478
495
512
520
524
523
527
530
539
534
518
497
488
493
508
519
522
521
530
540
572
587
573
563
549
540
537
539
541
556
564
541
534
544
553
568
585
590
595
593
579
565
565
575
568
565
565
580
602
610
625
622
608
593
566
546
533
534
545
539
536
541
539
522
512
503
501
500
482
468
459
449
436
424
421
423
422
425
418
415
404
398
395
380
392
409
403
396
400
401
381
378
401
428
427
418
421
431
435
417
406
392
395
418
422
405
422
458
477
496
490
463
447
442
451
449
440
429
434
446
474
498
512
508
497
480
470
461
448
438
449
475
497
501
490
486
482
500
522
511
494
487
486
483
489
496
507
515
524
516
506
482
466
455
471
480
489
489
489
497
490
494
496
496
504
505
507
507
500
485
488
500
514
523
512
500
507
506
507
519
516
512
487
474
485
482
497
520
519
525
522
513
499
489
489
498
508
512
506
503
508
512
514
520
517
510
515
503
487
498
504
512
527
541
542
528
513
510
515
512
509
502
502
497
497
517
530
532
522
513
507
526
539
521
509
500
502
513
522
520
518
515
532
536
528
518
527
543
553
553
543
522
499
483
493
523
521
502
504
514
521
520
516
513
499
500
512
525
536
536
524
503
520
543
543
534
517
514
510
500
494
490
496
504
510
510
513
515
522
525
527
539
534
503
475
456
478
519
542
538
521
522
506
492
501
519
514
499
516
527
530
529
518
526
548
556
554
559
549
537
539
527
522
527
530
533
529
527
511
508
523
532
537
526
515
497
502
510
519
526
531
521
514
517
502
481
480
490
498
493
475
472
480
499
503
498
489
491
520
591
681
763
850
926
966
980
946
874
787
697
601
503
417
359
332
315
317
325
333
357
374
395
420
447
460
461
465
457
450
450
449
456
479
466
453
462
482
479
465
461
468
479
469
465
441
438
449
477
509
510
492
497
483
466
468
468
473
485
482
456
446
444
462
474
474
502
519
518
523
529
531
528
546
588
580
557
586
603
607
642
645
644
652
646
649
677
704
724
742
736
755
817
872
869
844
823
837
844
870
900
909
897
891
909
951
974
965
946
942
944
934
917
931
970
1013
1023
1023
963
941
943
943
942
931
904
855
843
873
864
869
844
827
808
777
780
777
762
723
680
646
630
616
611
603
588
574
542
523
501
487
474
467
462
469
465
458
476
500
526
518
499
461
428
433
398
409
424
407
380
372
361
329
341
318
293
318
354
357
351
360
342
301
248
221
205
179
163
176
183
164
118
65
36
20
11
7
4
3
2
2
1
1
1
1
1
1
1
1
1
1
1
1
1
1
1
1
1
1
1
1
1
1
1
1
1
1
1
1
1
1
1
1
1
1
1
1
1
1
1
1
1
1
1
1
1
1
1
1
1
1
1
1
1
1
1
1
1
1
1
1
1
1
1
0
1
1
1
1
0
1
1
1
1
25
66
124
191
254
305
351
383
457
544
614
686
736
762
776
827
891
956
1021
1023
1023
1023
1023
1023
1023
1023
1023
1023
1023
1023
1023
1023
1023
1023
1023
1023
1023
1023
1023
1023
1023
1023
1023
1023
1023
1023
1023
1023
1023
1023
1023
1023
1023
1023
1023
1023
1023
1023
1023
1023
1023
1023
1023
1023
1023
1023
1023
1023
1023
1023
1023
1023
1023
1023
1023
1023
1023
1023
1023
1023
1023
1023
1023
1023
1023
1023
1023
1023
1023
1023
1023
1023
1023
1023
1023
1023
1023
1023
1023
1023
1023
1023
1023
1023
1023
1023
1023
1023
1023
1023
1023
1023
1023
1023
1023
1023
1023
1023
1023
1023
1023
1023
1023
1023
1023
1023
1023
1023
1023
1023
1023
1023
1023
1023
1023
997
936
899
879
860
854
858
850
812
768
743
728
701
671
663
672
675
671
634
623
657
713
755
784
831
902
973
1002
990
941
864
755
658
557
442
339
288
275
262
256
264
284
296
306
331
355
373
376
375
369
336
320
319
332
346
351
358
355
363
369
357
352
359
348
332
344
349
348
349
356
352
358
352
349
359
359
369
382
391
390
393
406
410
402
401
398
408
384
375
380
386
384
388
384
387
409
433
436
418
410
405
408
386
381
399
410
418
437
448
441
435
423
423
417
418
423
432
441
439
444
469
483
480
471
469
471
468
466
444
447
467
470
476
470
459
454
454
437
430
438
446
442
443
434
412
390
384
401
410
416
394
376
371
351
328
318
315
314
300
297
300
285
274
275
279
262
243
229
221
225
238
247
273
301
290
280
273
285
281
270
262
261
262
258
254
271
299
315
341
351
345
336
322
305
307
308
311
302
298
303
318
340
348
346
362
380
380
381
356
351
359
357
343
335
348
355
348
359
380
371
366
357
346
326
320
325
333
356
380
389
383
368
372
389
398
387
371
369
358
342
340
360
378
394
414
420
390
370
363
367
375
379
378
376
377
370
361
367
371
377
394
392
387
404
420
417
412
408
401
392
391
378
384
393
395
413
430
421
403
389
398
409
399
395
412
423
415
410
408
408
399
403
413
422
412
412
405
405
409
405
399
405
427
436
435
441
445
454
459
448
419
392
387
402
425
430
431
431
437
451
450
441
434
425
405
406
418
409
402
411
429
445
451
459
449
433
437
444
445
418
416
441
455
454
442
417
392
403
427
426
428
439
452
451
439
419
420
423
415
417
422
427
438
450
466
486
480
464
454
451
469
474
487
495
493
472
440
413
413
425
446
460
457
466
482
480
465
474
482
465
444
429
426
453
486
499
501
503
488
482
485
477
472
460
455
465
481
492
480
479
496
493
496
505
509
521
498
486
473
471
476
497
508
511
502
492
487
490
494
482
452
426
412
418
441
451
477
492
489
478
486
489
475
480
483
500
573
651
724
807
898
950
978
966
894
796
669
554
465
387
326
284
265
279
314
333
332
342
369
410
422
433
437
435
429
453
467
470
457
435
402
405
430
468
491
510
496
469
474
486
490
481
464
436
436
448
442
451
469
476
473
492
502
501
515
551
546
510
503
499
487
492
500
516
543
540
534
531
528
512
496
496
499
507
516
532
543
542
540
541
549
564
564
558
543
544
543
538
546
558
570
570
577
578
569
584
596
596
589
590
583
566
556
569
592
605
596
581
581
574
575
569
559
569
565
563
560
556
556
541
538
547
532
518
498
451
441
432
430
440
448
431
413
413
399
373
366
359
359
374
375
356
335
340
345
339
344
355
363
356
359
350
355
387
387
385
364
344
341
364
406
411
387
381
383
382
375
367
388
421
429
403
399
408
403
391
388
421
444
454
457
463
474
462
432
416
416
428
437
426
429
440
455
450
445
442
446
453
432
420
420
419
429
457
467
476
481
479
464
439
414
417
430
433
437
473
494
491
492
487
469
457
443
424
428
433
426
429
440
455
471
484
501
488
458
438
446
462
472
466
452
448
446
439
442
455
457
462
463
453
456
477
483
475
458
452
458
466
468
472
479
473
455
460
469
485
489
491
476
463
444
436
438
433
443
463
467
461
461
453
465
482
478
474
479
467
464
480
505
506
500
500
498
477
446
432
422
429
445
463
478
491
475
454
456
458
466
480
486
482
466
463
466
466
468
490
501
506
498
486
469
461
456
466
478
468
457
457
459
461
460
451
452
462
452
452
454
463
467
466
468
472
473
466
466
471
482
480
471
481
470
465
463
463
462
463
453
446
436
442
449
436
446
472
488
486
496
501
502
499
488
472
469
464
456
450
448
451
475
487
492
496
499
500
503
494
477
475
461
449
452
471
495
513
521
551
552
527
505
481
462
473
484
478
476
471
479
488
468
463
462
472
476
472
459
443
431
433
450
493
515
548
596
642
702
804
904
960
972
927
849
757
654
561
457
354
302
283
291
296
312
338
361
371
382
396
406
415
447
455
440
432
416
421
430
429
434
447
462
470
459
448
448
438
447
458
476
494
494
493
488
490
505
513
484
460
458
454
462
472
484
490
486
484
496
503
496
498
514
504
495
506
527
539
544
524
500
501
509
504
515
529
543
534
531
544
560
561
554
538
535
530
529
538
552
576
589
580
580
567
575
579
566
565
573
589
599
599
591
602
595
580
577
572
572
579
576
572
577
572
569
575
579
561
555
569
557
529
514
485
477
476
474
473
451
427
421
446
444
428
409
383
366
372
389
396
399
384
374
376
382
378
362
359
364
383
401
392
393
401
404
415
417
406
403
424
439
441
426
421
421
422
425
427
435
437
431
443
455
455
458
454
459
470
473
472
474
476
471
470
467
445
449
466
473
487
506
510
487
474
465
454
461
473
480
490
480
480
494
482
481
484
485
479
488
498
481
484
493
491
477
474
482
480
465
464
474
495
506
505
498
505
503
486
491
498
471
477
491
487
486
497
502
505
497
493
503
505
485
480
479
477
484
489
489
472
469
481
504
513
509
506
513
520
525
515
497
485
498
497
474
468
483
515
523
523
522
517
506
500
494
490
507
506
488
483
471
480
489
513
527
510
505
516
536
538
531
523
507
501
496
511
513
499
511
531
526
496
491
509
509
516
517
517
517
510
515
524
522
543
558
539
525
501
485
490
505
521
536
539
531
508
496
513
534
532
522
523
514
509
501
507
514
515
521
532
531
532
539
537
541
538
543
528
507
496
508
515
517
514
517
520
530
534
528
529
544
551
538
527
521
520
523
540
546
545
554
560
540
510
505
513
524
545
574
581
569
548
534
524
532
535
534
536
549
542
522
536
529
535
561
553
532
508
499
514
525
515
533
541
536
527
526
530
523
520
512
496
497
501
495
496
497
508
516
520
513
515
555
623
693
769
856
938
991
994
952
892
810
713
611
522
425
351
313
308
327
354
372
400
421
439
439
434
442
456
468
456
459
477
479
474
475
471
485
492
482
464
450
456
465
470
485
492
486
482
478
491
510
513
504
505
508
504
498
497
496
492
495
495
506
513
517
516
518
523
515
516
520
521
515
500
497
515
544
541
534
538
535
544
561
566
561
555
553
556
568
574
576
576
582
575
566
559
553
549
567
599
615
616
605
601
604
602
605
601
588
593
597
599
598
601
588
594
607
609
601
590
587
601
603
578
557
529
510
509
517
515
507
487
462
464
470
449
415
407
402
407
411
406
404
399
384
386
404
418
410
396
376
361
371
385
389
408
405
400
398
405
402
401
384
376
386
399
408
410
414
415
421
423
423
432
438
442
444
438
436
444
467
479
488
482
459
432
436
450
465
464
460
469
486
470
455
462
459
444
434
445
455
455
461
476
478
474
470
481
487
485
475
481
482
480
470
469
473
471
467
478
498
502
488
463
457
456
460
481
489
483
487
495
497
503
502
494
485
486
482
483
487
479
477
483
489
496
498
499
490
492
490
504
504
495
491
480
480
483
496
515
514
493
479
480
486
503
521
516
507
517
504
484
471
474
491
489
488
491
501
514
496
493
493
503
517
518
516
513
501
491
488
483
489
494
504
520
520
523
510
503
506
516
506
497
496
505
509
514
507
494
492
497
486
494
526
541
548
541
525
516
515
515
498
480
484
485
499
516
533
545
543
532
530
521
512
510
517
526
518
510
509
522
517
499
502
523
543
530
523
525
504
482
475
494
507
508
509
532
544
539
525
506
498
509
524
538
555
541
498
493
535
566
570
538
514
489
481
491
506
529
541
551
556
554
544
530
516
509
521
524
523
537
527
529
541
555
567
564
553
550
534
516
521
540
543
537
526
523
514
513
516
513
505
505
518
501
486
486
485
491
510
521
524
519
508
507
519
545
575
628
709
788
874
954
995
998
969
881
770
653
544
448
370
332
314
305
317
338
356
380
405
423
434
438
456
472
474
465
455
458
461
469
484
486
470
475
481
478
477
482
489
484
485
503
505
510
518
508
507
512
503
487
489
509
516
517
521
512
497
488
508
532
536
539
536
539
538
544
547
530
519
523
540
558
571
563
548
541
543
558
560
548
548
543
552
556
568
573
579
581
567
572
584
585
589
602
615
625
609
596
596
609
618
627
625
615
592
573
590
593
584
586
610
610
610
595
579
576
577
570
570
570
563
542
535
521
513
508
495
483
463
449
444
441
439
433
421
407
401
395
404
400
409
391
367
367
373
386
394
392
381
375
378
390
390
394
399
404
403
409
416
421
417
426
439
430
416
414
429
431
421
414
433
439
441
446
458
465
460
459
459
453
454
463
474
467
452
445
455
458
467
493
517
505
502
493
480
473
467
472
471
472
481
483
465
467
486
499
493
482
474
456
447
459
476
498
515
509
497
490
483
491
490
485
481
474
482
492
496
498
499
494
500
501
490
491
486
480
496
493
478
477
470
480
482
493
512
513
508
512
495
482
490
495
495
498
501
518
528
523
507
500
492
487
491
495
503
493
503
532
529
527
527
507
502
494
499
518
525
537
524
502
504
509
505
489
502
509
513
526
523
503
509
521
523
540
522
493
491
501
503
507
509
516
520
515
513
520
530
531
530
527
517
504
504
514
514
510
507
520
517
514
515
521
533
539
541
523
508
509
506
510
515
520
521
523
519
516
524
529
530
523
526
543
525
501
493
500
513
518
538
546
530
534
535
503
494
501
508
520
513
514
522
520
526
546
561
551
519
507
509
518
539
554
563
558
561
558
542
541
548
554
544
536
536
539
538
534
532
525
544
563
566
534
520
522
516
535
545
555
555
543
536
539
534
513
507
503
505
513
515
505
498
522
547
544
530
526
522
532
580
661
743
809
874
934
974
978
933
860
771
665
567
487
414
350
308
294
318
364
381
393
414
434
451
464
488
513
518
492
466
458
466
473
472
463
473
483
483
488
480
480
493
509
508
512
521
509
514
528
531
526
513
513
520
530
530
518
512
508
508
516
530
541
543
533
532
529
501
483
506
527
535
537
541
553
544
550
552
549
532
522
531
567
605
617
608
585
549
528
538
564
577
590
597
593
593
592
577
581
580
574
587
600
609
603
605
608
607
607
609
602
599
593
587
582
574
565
569
582
590
594
587
556
529
513
509
516
519
505
499
490
462
444
441
438
426
425
422
416
417
402
391
384
366
362
374
398
401
400
393
386
377
381
387
398
400
404
388
375
389
402
398
394
398
411
420
408
400
407
427
447
463
467
441
431
437
438
431
431
442
449
463
463
447
445
465
467
474
471
471
487
489
474
470
470
460
456
455
438
440
461
481
491
494
487
481
477
481
481
483
493
499
484
474
469
460
463
478
488
482
474
480
480
473
459
455
462
466
474
479
475
470
466
477
493
480
477
484
471
469
479
485
499
512
508
493
478
474
468
467
476
486
473
454
456
467
486
496
491
496
498
502
499
504
516
526
525
517
493
483
480
486
481
484
496
505
505
505
486
462
472
504
520
503
490
494
505
517
521
515
516
505
491
507
508
518
525
523
523
515
491
483
493
514
551
553
526
500
499
512
525
529
526
509
513
517
506
513
517
512
508
509
519
519
509
510
509
504
514
524
531
534
525
512
506
520
536
562
561
528
521
542
526
517
508
511
513
515
498
470
478
503
519
529
540
539
548
557
546
517
504
505
517
522
514
510
519
543
547
532
525
514
505
491
516
543
539
536
520
519
533
538
532
535
534
529
535
535
543
546
540
544
555
553
545
542
539
531
513
517
526
525
515
503
504
500
512
520
515
501
499
502
503
522
516
492
488
502
501
510
553
620
699
779
857
932
985
995
966
901
821
719
594
487
406
369
343
322
320
341
380
426
444
439
435
438
443
440
439
457
470
473
463
462
470
486
501
494
475
473
488
489
477
481
496
503
529
534
516
505
496
494
494
500
494
495
495
511
525
517
509
520
520
522
516
510
504
500
507
526
541
540
544
552
562
559
562
573
572
569
552
542
540
540
541
561
584
589
584
565
560
566
560
573
590
597
599
604
596
590
597
604
615
628
631
634
631
622
618
611
607
614
613
616
602
572
579
593
601
599
591
577
567
560
553
549
543
524
518
502
492
483
469
462
454
456
451
437
420
417
425
413
419
416
404
390
379
380
379
379
379
383
385
393
398
397
407
408
403
407
406
409
402
396
401
405
410
422
433
415
409
412
412
412
424
433
449
452
455
460
455
440
441
461
475
472
455
449
472
481
476
463
440
449
464
467
474
481
479
471
467
462
459
467
477
485
483
473
468
472
479
480
458
449
456
469
484
482
481
469
468
473
478
473
469
475
497
501
483
456
465
482
474
476
479
478
492
492
490
502
508
507
487
470
456
457
478
480
473
491
515
515
510
513
496
491
491
492
489
477
477
478
482
503
510
506
512
508
505
508
520
520
503
506
501
484
491
501
490
482
491
510
516
518
514
527
526
517
505
493
490
488
497
504
502
511
524
525
528
532
526
534
539
530
513
495
489
494
502
504
514
519
526
516
490
496
507
507
515
529
538
515
489
480
506
518
533
541
535
543
548
534
512
504
524
539
528
507
498
492
501
511
522
537
532
520
513
513
511
514
509
517
523
528
520
504
496
500
535
555
547
539
537
520
521
525
518
518
523
522
511
518
534
545
528
527
542
553
544
532
528
538
558
571
561
551
537
536
541
543
538
540
552
561
561
544
549
543
542
548
553
550
534
537
537
536
535
534
522
508
517
504
497
500
508
523
537
546
534
517
507
502
510
544
582
626
691
763
846
924
983
1012
984
893
796
683
581
496
407
361
343
343
344
336
337
348
368
401
438
458
461
462
476
501
504
499
467
456
464
484
485
472
474
491
504
513
499
490
472
463
470
472
466
477
496
507
517
538
540
539
531
512
500
499
505
517
526
528
518
518
521
521
536
555
557
532
519
530
538
525
510
531
556
562
561
558
554
544
547
545
546
550
552
552
573
574
570
576
589
595
603
600
586
570
587
598
603
611
620
611
594
587
586
585
603
605
599
588
576
581
588
581
566
579
597
604
575
556
549
538
516
501
503
504
492
478
467
464
453
433
441
434
415
392
393
401
396
397
391
392
389
383
382
378
384
378
373
368
373
387
403
414
415
413
415
432
440
447
442
424
420
422
422
435
460
470
477
483
475
465
465
460
458
446
455
457
452
454
467
481
486
480
484
486
477
469
467
471
476
477
484
492
500
503
505
494
492
481
469
454
451
472
497
505
512
507
489
474
471
484
483
473
473
480
484
490
483
487
508
514
525
493
456
456
478
494
487
471
469
475
479
492
506
510
503
495
488
489
493
487
487
490
475
481
487
502
527
523
499
491
487
483
479
483
499
508
507
492
489
488
488
504
514
524
531
520
507
501
515
523
517
521
514
500
506
514
516
510
509
508
495
498
512
512
496
488
492
495
508
505
518
534
543
554
548
531
523
523
531
519
506
502
498
505
503
502
501
517
525
523
520
517
522
520
517
524
542
551
534
516
517
525
516
527
528
522
510
509
507
504
494
482
490
501
501
508
527
528
519
516
525
512
490
506
522
534
537
540
539
531
528
521
506
508
520
526
517
510
505
502
501
501
503
521
524
516
517
518
529
540
546
533
525
520
536
560
567
552
529
522
515
512
518
524
515
528
538
543
540
532
522
517
517
515
522
502
501
508
507
503
504
514
514
502
506
482
468
478
474
479
503
521
549
574
631
719
808
889
959
982
971
904
822
729
625
533
448
369
311
291
297
318
340
374
404
418
429
438
454
463
460
487
488
462
442
430
429
451
467
480
484
482
482
478
467
472
479
481
486
495
483
474
486
503
502
504
513
514
521
504
493
503
510
515
519
519
530
518
525
531
541
534
517
514
519
523
528
534
534
541
548
546
545
545
535
542
555
563
566
558
558
563
563
578
593
605
596
583
576
584
583
581
587
601
610
593
585
594
612
617
608
604
600
613
621
601
596
600
595
601
618
614
607
589
573
559
546
533
523
521
517
504
487
494
497
476
461
446
431
436
432
428
406
396
405
398
395
397
403
401
388
384
382
390
400
393
385
380
393
391
398
412
407
389
383
389
397
412
425
432
441
431
417
418
434
458
464
439
424
432
437
440
453
462
467
477
475
474
457
455
465
458
449
453
466
467
466
464
466
479
481
468
473
484
497
499
475
457
460
472
486
497
492
493
494
501
514
499
475
485
494
506
493
492
488
459
455
456
457
469
491
493
485
483
487
488
482
478
485
487
485
480
478
490
502
495
487
495
507
515
508
504
506
501
498
513
512
491
483
483
473
482
494
507
509
500
494
491
488
498
508
523
527
524
517
524
511
502
508
490
485
488
505
507
501
501
514
522
520
519
523
520
513
509
517
505
488
485
501
528
524
534
550
550
541
526
509
501
490
495
506
503
504
502
508
500
511
524
528
530
526
534
544
528
516
525
520
508
529
543
545
524
503
504
514
522
527
512
513
508
507
517
514
517
521
534
541
550
556
558
558
543
533
522
516
511
504
509
516
521
524
521
522
534
537
530
530
531
515
501
507
519
518
519
533
541
545
540
535
536
537
541
556
558
525
521
523
522
523
522
521
533
550
532
521
519
525
527
525
524
533
521
514
521
528
538
539
551
550
559
564
567
551
532
531
528
523
512
515
521
500
482
476
480
471
490
506
498
485
490
492
485
492
528
572
625
688
770
856
940
1001
1009
969
896
812
715
604
487
382
330
306
307
320
338
362
386
402
405
419
435
453
459
459
452
456
454
456
460
459
468
480
489
485
478
473
480
483
495
510
492
484
488
483
496
505
496
484
491
502
496
487
488
488
489
493
508
512
519
529
531
533
529
524
526
531
528
516
521
512
510
523
536
549
543
540
544
548
552
561
558
558
571
575
575
559
549
561
580
592
588
584
589
597
612
617
610
598
598
610
595
583
587
610
618
615
603
594
593
601
602
586
581
581
579
566
558
567
573
562
547
542
530
530
531
525
506
477
452
446
445
425
422
420
408
412
418
426
427
410
398
376
368
377
389
398
407
385
379
383
385
390
395
392
385
402
418
417
425
428
432
428
418
419
430
434
431
428
436
439
440
454
464
462
448
432
436
461
474
472
478
480
477
472
474
472
471
479
481
475
451
451
467
476
484
476
463
472
489
483
485
498
500
486
481
483
485
477
478
480
490
506
503
480
467
482
486
473
464
466
478
500
510
503
494
496
504
508
506
505
496
479
475
480
481
483
500
503
511
510
517
510
490
485
491
488
491
498
497
512
517
503
494
503
508
501
504
514
525
532
512
493
495
508
519
520
508
507
513
514
499
517
531
528
513
530
552
537
507
510
522
533
531
525
510
485
480
498
533
546
512
495
496
514
520
513
494
504
530
543
546
543
534
525
523
524
524
507
498
496
509
517
533
552
552
529
513
512
504
497
490
490
519
518
527
537
528
506
504
516
520
518
508
515
523
522
527
533
520
516
524
518
513
497
480
491
524
530
522
526
522
512
510
517
535
536
535
536
540
539
538
527
514
512
516
524
523
531
541
547
550
541
533
531
542
540
529
530
549
547
536
531
532
524
513
507
511
528
538
551
556
546
539
548
555
532
508
501
501
509
520
515
498
489
484
481
482
501
513
508
511
519
529
534
552
598
659
748
839
909
960
987
979
915
827
735
642
548
462
379
319
299
305
313
326
347
378
399
423
456
481
482
478
469
469
473
471
467
478
487
490
489
484
490
496
485
483
488
488
486
494
507
498
481
480
510
527
525
532
538
535
519
502
499
513
526
528
511
491
510
533
544
545
557
545
524
512
510
510
516
534
550
565
578
577
563
552
547
563
549
532
538
549
566
592
613
597
589
601
600
589
593
592
590
594
591
590
597
612
622
621
607
607
613
603
589
602
622
616
603
598
594
604
596
593
579
560
564
563
558
536
514
505
493
493
496
498
466
441
455
457
445
438
428
417
407
394
381
386
392
372
371
386
390
387
388
387
393
397
410
404
394
388
389
394
391
399
408
407
405
412
428
430
442
454
458
453
440
421
421
438
462
451
433
430
447
475
489
468
446
458
457
457
449
444
461
483
493
492
491
483
488
494
501
501
507
499
492
499
499
495
483
475
478
494
506
500
493
492
481
467
460
479
506
513
500
499
501
495
494
499
500
503
501
493
494
506
515
507
503
495
493
495
498
506
509
510
505
498
483
484
498
496
511
521
520
508
491
491
494
492
485
497
510
526
536
531
527
524
517
517
520
525
524
518
509
503
512
521
510
497
488
504
505
513
522
521
518
524
519
508
503
497
502
507
513
517
522
529
521
497
486
488
495
505
515
515
525
538
559
550
516
493
497
501
499
494
502
517
518
529
529
528
516
509
523
532
530
513
499
500
504
502
510
523
537
542
528
516
511
515
518
517
509
506
520
517
514
524
515
529
534
529
516
504
495
504
526
521
514
529
528
507
494
498
501
501
515
541
556
552
540
537
551
559
556
533
499
491
514
527
545
578
572
537
511
517
522
506
482
492
520
550
557
551
553
543
535
522
524
531
519
517
510
506
506
498
495
495
521
543
527
503
490
471
466
483
494
526
592
668
747
820
888
934
960
957
912
830
729
631
538
443
382
336
310
300
297
310
339
378
427
455
458
470
463
450
454
472
488
486
474
462
458
454
449
450
459
462
475
493
499
506
506
501
491
484
485
470
470
480
493
494
493
501
507
489
488
494
512
518
519
527
535
527
514
522
531
537
540
520
501
497
508
517
522
534
546
544
546
540
546
561
552
542
553
557
562
571
577
580
573
572
588
582
562
562
578
595
592
600
620
628
632
626
613
594
583
591
594
595
603
593
585
586
592
590
579
568
562
549
550
552
552
536
527
513
485
458
452
439
436
436
452
448
426
412
399
398
406
402
384
377
370
367
379
373
370
381
381
379
375
374
378
387
395
378
368
385
398
392
395
405
408
414
431
429
424
416
406
419
442
433
420
437
447
446
457
464
471
456
432
420
430
451
454
446
461
483
499
501
512
495
465
450
452
470
470
471
476
474
475
478
481
488
494
498
489
480
469
465
467
479
501
499
489
489
484
479
479
480
484
490
493
485
486
495
484
480
479
476
475
487
494
500
506
512
514
510
504
482
476
482
489
500
505
500
490
494
517
530
532
528
528
504
491
495
496
484
489
493
490
500
497
498
499
497
506
510
511
508
505
510
516
520
520
515
500
498
501
502
498
493
496
505
524
524
516
516
511
511
506
502
504
506
504
510
516
521
527
533
533
534
506
485
487
493
476
483
504
506
515
526
523
508
499
504
524
529
517
503
503
520
534
531
526
526
525
524
524
524
523
523
525
528
523
521
517
513
508
512
527
537
523
500
496
493
505
522
535
545
553
538
505
493
518
539
537
522
534
535
513
506
508
515
525
539
539
525
532
553
565
552
531
533
544
547
550
550
540
532
535
538
543
540
545
544
543
555
569
575
575
570
556
553
550
552
548
536
524
500
498
501
522
547
545
531
516
525
509
492
480
479
499
524
520
493
519
552
602
666
733
811
880
942
984
996
969
898
817
689
560
466
392
336
307
306
323
351
382
416
433
438
445
448
458
471
476
469
463
461
461
481
505
513
510
502
502
491
475
476
475
466
472
488
488
492
499
504
509
531
529
521
513
515
523
516
509
512
519
517
521
526
530
533
521
522
544
550
535
524
529
544
551
540
550
563
555
542
537
551
552
557
553
539
543
561
577
591
606
617
600
577
562
569
578
594
600
610
607
600
597
589
617
621
606
587
594
606
607
607
606
604
607
608
621
632
609
579
571
565
564
570
565
551
538
524
506
495
485
467
453
446
448
444
445
449
443
424
416
403
395
388
385
389
403
403
390
365
362
362
371
371
385
412
418
415
412
409
422
412
392
401
426
437
427
422
427
446
450
438
427
436
442
440
443
445
453
469
475
458
464
472
463
443
427
440
462
465
461
468
466
454
456
480
488
499
482
460
464
468
474
488
490
500
504
487
483
496
503
488
470
455
449
451
456
458
475
496
499
495
497
502
493
471
484
503
500
503
505
494
497
506
508
493
483
486
476
471
467
480
496
487
478
483
488
496
508
531
530
525
527
509
493
503
503
517
528
523
496
486
486
496
509
518
522
516
515
521
507
493
489
489
488
482
483
494
493
502
518
522
516
520
526
532
507
496
494
502
513
520
541
545
541
526
505
506
508
511
525
518
514
501
498
506
500
512
517
502
489
501
518
519
519
526
512
502
506
512
518
531
533
530
527
518
499
502
521
527
523
518
518
523
505
501
525
528
532
525
520
529
518
504
507
514
518
530
527
531
539
522
512
511
512
510
522
528
522
523
531
548
546
542
520
498
504
507
508
511
523
542
548
545
535
515
503
503
514
527
544
554
567
567
554
547
542
528
500
487
500
522
521
531
558
547
544
554
542
526
529
538
536
523
516
517
536
557
549
517
502
506
509
512
517
531
532
520
499
487
497
495
477
479
492
497
511
501
512
536
570
622
690
764
833
916
978
992
962
886
786
677
577
494
403
337
308
310
323
337
346
365
381
396
409
429
459
478
472
459
461
484
494
477
461
449
455
477
486
486
501
508
494
489
493
496
487
497
513
517
527
519
506
508
494
479
481
508
529
529
527
519
505
500
518
542
553
547
531
523
526
538
547
538
540
554
562
559
550
541
535
545
556
576
592
588
579
575
578
586
576
562
561
581
584
583
589
581
579
597
609
629
629
617
607
598
596
587
595
615
642
648
636
626
623
620
621
623
626
615
605
581
559
544
538
551
557
549
528
522
513
499
486
471
449
444
440
431
435
442
443
430
411
389
389
401
403
402
404
415
419
406
387
382
379
384
406
407
412
430
431
432
429
431
417
409
412
428
429
431
450
446
454
465
457
451
438
428
447
470
476
467
460
459
460
454
453
482
510
518
512
517
515
495
481
471
465
475
490
485
482
481
477
484
498
505
508
512
512
500
489
502
488
490
498
493
481
488
501
509
513
501
495
488
492
504
509
501
490
493
502
496
493
501
494
488
497
512
526
518
490
484
495
487
485
488
495
507
517
526
532
532
526
519
502
501
496
496
485
475
482
495
504
505
503
509
521
527
527
525
520
517
516
518
513
504
496
503
501
508
512
517
516
521
529
533
513
500
496
504
507
508
504
510
518
519
524
520
504
504
513
518
503
490
497
512
529
543
540
524
527
530
523
521
532
523
500
493
501
503
511
510
513
516
512
513
508
506
512
522
534
537
533
547
535
519
502
492
511
534
540
536
520
503
496
497
503
516
530
531
518
513
517
521
508
492
495
520
530
531
533
535
535
528
520
518
505
521
536
528
522
528
527
520
524
524
521
522
535
545
529
512
515
510
516
517
519
531
541
548
541
520
523
531
526
531
522
525
526
528
528
514
496
486
503
507
494
471
467
470
491
497
501
506
493
494
501
521
574
652
734
830
912
963
990
958
882
800
708
608
529
443
358
311
303
307
312
334
355
377
407
428
434
430
445
461
471
463
455
444
448
458
467
469
463
474
482
478
488
497
493
478
480
488
495
513
503
497
508
516
501
475
480
492
511
524
517
523
518
513
509
504
509
519
520
525
535
535
527
509
499
521
540
538
533
534
518
507
524
533
533
540
548
554
562
570
564
568
586
583
580
575
579
569
558
574
597
615
612
601
591
588
593
599
602
603
599
607
611
607
605
596
576
570
570
572
577
591
597
569
538
536
550
531
514
508
496
488
472
462
456
453
453
448
437
413
406
409
396
391
402
408
391
387
383
388
404
409
403
397
390
381
382
378
366
366
379
373
383
384
384
397
416
426
432
425
414
415
417
428
432
423
435
444
462
483
487
493
488
465
455
458
469
477
466
457
459
463
462
475
480
457
448
463
470
465
483
478
471
464
467
484
488
481
473
472
479
493
495
503
504
499
495
486
482
489
489
485
481
481
466
463
466
472
482
503
516
502
492
486
474
485
493
486
480
486
502
501
498
504
514
521
511
490
472
463
465
470
485
506
513
486
475
481
497
502
503
493
493
521
533
525
506
495
485
496
513
518
513
500
496
500
505
507
504
503
509
518
521
515
502
507
527
521
522
508
495
504
503
503
503
493
489
495
503
516
529
528
511
501
504
513
509
510
519
521
521
514
509
515
520
509
495
503
528
532
535
540
531
518
517
513
513
507
507
508
513
523
529
530
520
496
497
501
521
539
539
528
523
523
533
530
517
523
513
507
513
515
521
531
525
507
492
496
514
535
534
521
518
517
528
541
534
531
515
500
502
522
538
536
541
550
549
544
536
537
539
536
530
531
534
519
526
540
543
542
526
523
532
537
539
557
566
572
558
532
516
508
510
508
501
498
501
527
549
543
522
494
483
485
475
467
474
484
487
507
539
574
626
693
760
837
926
998
1016
966
879
791
705
608
508
424
371
334
321
330
339
349
382
405
416
427
445
457
462
459
457
454
457
463
477
483
484
483
481
491
499
506
509
488
472
457
454
471
484
497
522
536
536
516
490
485
481
477
487
494
508
521
533
525
522
526
529
539
539
523
517
527
536
544
540
524
512
514
532
549
557
561
555
553
558
560
551
545
547
550
546
567
583
582
581
583
588
583
588
588
588
596
592
588
596
617
631
604
595
589
586
602
619
622
619
604
585
585
583
583
567
562
559
565
565
567
568
562
545
519
496
484
472
464
455
455
430
405
413
425
418
408
398
392
395
395
380
379
376
379
382
391
399
391
383
373
378
381
396
413
427
438
428
406
400
405
410
409
409
406
409
424
420
414
422
434
435
436
438
438
436
440
444
449
456
453
463
459
464
468
464
469
485
485
467
463
487
496
489
472
459
467
476
475
465
465
476
473
473
477
483
479
490
499
494
496
498
494
501
476
438
437
462
477
481
490
504
504
495
491
492
495
496
510
526
514
495
491
491
485
485
488
489
488
486
494
517
524
506
497
500
496
495
495
493
486
495
510
512
511
512
506
506
514
524
515
514
507
507
513
517
523
530
536
543
531
520
508
494
502
515
520
529
542
546
532
514
508
502
516
523
499
494
514
539
538
515
508
502
508
522
535
535
527
517
521
513
506
498
506
523
526
526
533
541
535
508
506
514
512
504
508
528
538
529
532
532
526
519
511
518
511
500
505
509
514
520
527
524
505
497
505
513
523
528
536
549
554
537
519
512
516
522
530
542
532
524
523
518
525
519
508
514
517
521
519
512
527
529
529
536
537
540
543
537
535
526
527
545
557
552
542
539
529
514
527
532
531
538
548
542
528
524
539
542
541
532
533
539
544
551
546
528
530
527
514
520
534
540
540
542
536
511
502
509
518
529
536
539
535
519
511
508
510
531
578
642
718
785
867
946
980
990
961
893
799
681
566
455
371
335
315
308
313
320
351
387
416
448
473
479
478
479
464
455
461
466
466
481
473
466
475
488
488
487
490
502
501
492
487
503
510
499
492
500
514
495
490
492
513
525
529
545
567
569
542
516
509
513
510
516
527
520
528
540
549
558
554
535
535
547
552
544
532
530
531
548
558
566
574
576
559
561
569
582
591
597
586
574
566
576
591
596
599
601
603
600
602
601
612
628
630
602
591
599
604
603
611
619
619
615
601
584
577
576
579
574
575
580
570
561
546
528
521
523
527
508
491
465
428
409
419
434
427
423
420
413
404
402
398
398
404
410
399
384
378
390
402
410
399
388
390
401
413
432
449
448
438
423
411
397
394
414
430
443
460
457
447
452
450
462
462
460
451
439
459
464
472
482
484
486
483
484
484
477
477
481
480
496
493
487
493
497
508
504
486
477
490
493
499
497
494
494
492
498
494
487
476
483
489
480
475
485
490
480
476
480
484
500
504
508
512
501
504
493
485
486
495
503
509
506
497
499
504
505
496
498
509
513
505
497
499
526
540
537
514
504
503
508
510
507
508
506
495
489
491
499
497
497
505
513
514
511
535
537
520
510
508
519
513
502
511
507
506
507
483
480
503
514
512
509
518
530
529
531
539
537
523
507
505
505
507
508
504
494
506
516
517
523
529
542
544
534
520
516
517
514
506
512
511
507
504
504
512
520
531
537
541
543
537
510
495
496
501
505
528
540
530
525
519
496
499
520
528
534
528
529
538
537
527
521
520
521
521
526
511
515
527
532
523
511
507
514
505
491
502
518
522
517
538
551
555
554
556
555
540
536
529
528
541
555
556
546
551
549
548
547
538
523
505
509
518
530
533
534
522
513
505
494
493
498
503
507
497
491
494
508
513
516
512
509
507
504
522
561
614
666
743
835
911
977
1007
982
902
816
713
589
490
402
333
299
294
300
328
351
366
392
408
430
453
465
470
457
447
454
461
468
483
504
505
493
491
499
485
476
472
470
470
470
465
473
483
479
474
488
494
509
515
514
504
502
502
505
515
507
499
504
521
522
512
507
505
519
542
563
548
519
505
502
515
513
495
498
512
528
547
550
548
563
550
535
551
561
568
563
548
543
554
568
582
603
598
588
590
585
588
589
596
610
610
601
598
587
577
582
591
587
580
575
588
595
592
589
595
593
570
559
555
546
533
518
514
516
510
490
476
472
481
480
466
449
437
430
412
391
389
393
388
388
385
376
377
372
358
376
394
388
372
361
366
372
386
402
400
401
406
403
412
413
403
409
424
430
434
437
440
444
441
426
422
422
421
438
450
453
440
435
447
462
472
464
459
449
446
455
467
468
465
466
467
462
474
478
471
461
471
470
464
471
476
479
484
483
492
486
481
472
460
453
461
464
476
482
478
483
488
488
479
472
466
476
493
485
474
467
465
475
496
501
485
477
483
486
496
487
482
492
493
491
487
495
498
499
498
497
497
485
488
491
492
488
482
496
502
506
498
477
468
480
501
511
504
508
500
504
505
498
504
501
494
493
491
500
507
496
502
510
504
500
504
511
520
505
497
497
487
487
486
485
495
502
507
517
529
537
522
513
498
510
505
505
520
509
492
500
522
534
526
513
491
473
477
496
507
520
536
537
520
512
514
529
551
561
543
519
508
501
493
505
516
510
514
528
536
534
531
506
492
499
508
514
518
528
533
528
506
500
518
535
531
524
537
548
546
537
532
533
532
542
544
538
535
552
559
540
510
512
528
536
531
539
548
537
529
530
523
530
548
552
557
560
556
555
545
527
541
542
544
567
574
548
522
518
515
509
516
523
531
525
518
509
510
513
524
522
500
486
483
501
514
531
557
594
644
719
814
911
977
1010
1004
947
865
772
646
527
432
364
329
323
333
354
381
402
407
414
422
437
444
444
450
461
469
467
464
465
460
450
453
466
478
473
472
474
467
474
483
486
491
493
493
500
502
509
499
492
496
488
486
491
489
499
514
510
495
503
520
531
539
538
524
524
532
547
557
552
543
537
521
520
530
532
535
555
559
561
566
551
540
545
550
553
550
556
560
579
588
582
589
595
606
593
582
582
593
600
608
610
619
621
622
624
635
633
626
613
600
599
591
592
587
584
574
552
546
557
562
553
547
532
537
537
518
496
477
463
448
452
452
452
443
417
398
407
414
409
401
389
383
381
377
375
386
399
394
390
393
389
367
363
379
396
412
419
422
417
414
404
400
415
432
435
433
440
439
438
431
423
436
448
444
438
445
446
447
459
463
465
458
462
462
462
479
472
465
465
457
458
467
473
485
481
477
470
461
466
468
477
486
487
478
469
465
470
472
462
462
470
463
464
475
481
474
469
477
488
490
493
487
492
510
511
500
492
474
485
500
500
505
504
480
458
448
443
450
468
473
485
510
506
482
467
467
482
493
497
503
508
507
498
515
515
489
472
469
476
499
506
487
461
463
483
496
501
506
519
512
501
491
482
485
503
520
523
527
526
514
500
507
515
519
517
508
497
486
488
500
507
507
507
499
493
492
502
509
504
512
521
514
517
531
525
525
526
531
533
521
502
501
509
520
537
541
545
542
531
525
521
520
524
528
532
521
509
506
527
539
527
515
527
530
526
523
504
496
510
530
537
526
521
514
537
555
546
543
540
532
528
524
521
524
526
528
522
520
533
538
537
531
540
549
558
555
549
549
545
531
518
528
556
564
558
555
556
551
548
555
540
521
522
535
543
544
555
561
563
544
524
532
525
522
524
529
540
536
519
511
512
518
520
514
508
514
514
500
502
509
524
526
541
569
618
683
740
816
900
959
989
977
924
850
760
646
534
440
367
315
291
301
327
357
375
392
413
434
456
476
480
485
485
481
477
457
435
454
473
490
506
522
522
508
498
486
491
496
494
493
492
493
500
511
511
509
501
505
506
507
517
515
516
526
530
525
532
532
535
545
564
557
528
511
500
505
519
540
551
569
572
552
528
535
543
549
553
556
568
567
555
553
557
558
564
585
589
576
567
575
600
608
632
639
629
609
602
606
609
600
583
584
604
619
620
609
595
585
577
575
593
609
611
567
542
545
549
559
552
550
538
528
533
533
522
500
464
443
440
436
425
418
417
416
398
382
401
424
415
407
388
382
380
378
371
379
384
384
381
393
411
423
434
428
411
414
416
418
411
406
420
423
421
424
424
439
458
457
446
433
438
443
453
467
474
483
491
481
472
470
466
456
462
474
485
500
502
484
482
478
468
459
456
448
453
460
453
469
485
492
484
486
484
484
486
484
503
512
511
506
501
491
494
497
497
494
488
483
473
464
466
470
475
486
492
498
498
480
477
479
475
480
508
523
512
502
503
500
489
500
518
518
506
501
517
532
521
508
499
492
486
482
488
493
493
497
500
499
508
511
507
499
494
505
507
516
530
530
506
496
493
493
489
499
520
527
528
518
507
514
513
506
499
514
525
519
502
499
525
539
529
516
504
512
524
527
522
510
496
495
504
520
524
515
511
510
507
510
511
516
526
527
537
548
556
573
559
522
498
503
506
513
510
507
494
491
495
503
521
528
523
530
526
525
525
532
532
514
505
517
532
540
536
523
527
542
543
554
554
539
533
529
516
503
507
523
531
537
534
526
538
565
562
547
536
538
540
549
559
541
525
517
523
549
557
553
551
547
542
532
509
499
507
521
537
535
532
523
524
525
509
503
518
510
507
508
488
484
508
515
516
510
503
513
534
574
634
725
825
905
957
989
985
923
825
714
608
516
430
366
319
292
299
326
369
398
425
445
455
450
454
453
460
462
457
455
462
464
472
480
482
483
488
493
481
478
478
469
478
488
497
505
507
500
496
500
512
523
522
515
512
509
508
507
521
524
520
508
504
516
531
527
513
506
515
526
537
542
539
534
530
521
528
542
549
552
559
569
586
593
574
543
528
535
552
559
569
576
570
559
566
576
585
584
593
583
582
590
605
617
617
617
614
607
600
583
571
575
599
614
604
599
595
584
571
554
544
546
541
533
520
509
503
499
493
497
494
481
470
456
441
432
394
373
387
403
398
388
384
382
382
388
396
390
390
397
369
364
363
368
379
396
399
401
400
412
426
433
429
416
417
417
429
435
443
437
431
439
451
446
447
454
458
459
442
442
439
440
447
457
456
460
474
485
485
486
473
466
476
477
469
469
464
469
468
475
488
504
508
494
481
476
472
476
483
474
471
476
477
469
469
472
489
500
517
526
507
493
492
479
477
481
481
504
515
506
500
486
471
476
485
486
498
508
499
494
497
491
488
489
487
498
501
502
498
498
493
500
514
514
518
512
504
498
484
482
489
500
506
501
520
532
530
519
510
491
484
492
508
503
491
497
509
517
508
500
495
506
518
514
511
509
510
505
517
522
510
508
506
503
512
514
523
520
519
527
523
515
524
530
537
536
526
515
510
509
513
514
508
505
513
529
535
529
531
532
532
527
510
524
537
524
516
503
497
501
517
537
545
548
550
550
544
529
529
537
534
524
524
520
518
526
530
525
527
531
521
507
509
527
524
518
498
500
512
526
537
541
542
542
541
531
523
514
522
534
541
530
518
530
535
526
527
540
546
556
558
549
549
544
537
529
533
547
557
561
549
535
539
540
521
520
538
550
537
531
537
558
559
544
509
502
508
506
505
510
500
504
506
508
509
503
495
492
496
512
522
508
488
496
521
556
602
674
757
844
924
982
1000
966
896
825
733
612
498
398
327
302
314
335
354
359
356
378
412
428
445
458
457
454
465
464
458
464
468
473
470
476
481
471
471
476
479
478
470
475
488
494
484
465
465
471
477
480
478
478
487
499
501
513
521
520
513
512
531
529
539
546
536
523
521
519
521
522
520
538
559
555
537
525
523
530
545
549
541
543
543
544
554
580
590
587
578
577
583
589
589
594
585
588
592
598
595
588
599
603
595
602
613
617
604
586
585
588
595
606
609
595
579
576
585
596
595
601
590
554
538
522
517
520
507
494
482
468
457
445
429
415
418
444
462
461
430
397
370
370
382
388
395
379
371
381
392
402
415
420
408
407
420
405
386
394
414
426
432
430
410
399
406
413
421
427
428
435
445
452
453
448
442
446
460
457
453
461
470
474
481
480
473
477
475
464
452
465
482
488
480
461
455
454
468
482
485
491
494
488
484
480
474
474
483
483
488
495
490
486
488
491
490
497
502
506
492
485
480
470
466
478
490
498
502
482
481
472
468
471
474
482
484
486
492
502
497
499
503
503
494
493
506
509
498
496
501
510
505
497
493
496
499
509
519
517
505
502
505
497
499
488
480
495
503
497
495
495
498
506
508
516
510
494
494
507
522
528
518
513
502
498
500
512
515
521
535
542
546
532
516
512
506
500
489
490
502
520
532
524
523
522
532
536
524
511
498
501
515
523
523
516
518
528
536
545
542
538
557
557
526
508
503
526
536
511
509
505
509
506
498
491
499
513
528
541
546
539
542
546
524
522
528
526
538
542
533
531
537
557
564
544
513
503
521
526
515
506
510
526
536
524
501
512
543
555
542
543
546
548
546
554
555
551
542
541
538
533
527
537
554
562
569
555
535
521
524
528
529
541
547
539
522
526
528
504
500
523
548
559
562
554
536
520
502
490
494
500
507
517
516
509
504
521
534
539
524
505
503
517
545
597
682
769
854
924
961
978
966
904
812
699
595
489
386
332
315
319
323
333
346
375
405
440
457
454
454
453
451
467
467
467
473
483
483
475
472
468
472
486
492
496
492
503
522
498
481
490
499
496
495
510
524
526
517
503
514
527
515
510
528
535
529
506
496
521
541
535
526
516
526
542
544
526
518
530
522
531
539
546
558
562
544
556
582
591
587
584
588
588
577
559
556
559
557
557
570
592
609
606
599
578
581
603
605
606
614
618
617
604
601
602
593
588
585
587
586
589
597
617
598
561
543
532
519
501
492
494
484
493
505
500
487
458
446
448
450
449
439
417
413
406
390
383
380
379
383
401
421
429
414
393
366
362
359
349
365
382
385
386
383
396
412
410
407
416
431
432
436
433
435
436
431
430
436
443
453
453
468
472
469
463
462
451
445
448
456
464
466
444
442
477
489
485
478
467
471
474
479
494
493
485
487
482
478
477
475
491
498
499
495
497
489
470
458
453
465
480
488
486
490
476
469
472
478
487
499
495
490
482
481
485
495
517
524
516
501
490
496
503
492
500
509
512
512
517
521
514
479
454
462
475
490
516
517
501
518
529
534
515
502
513
522
531
529
519
515
515
510
493
495
509
509
497
495
513
540
547
545
539
526
514
522
519
508
508
501
505
518
538
557
548
524
503
504
526
533
524
513
503
513
524
533
537
526
526
525
529
532
528
523
521
521
518
524
529
536
534
514
495
507
519
519
518
511
516
522
529
542
542
540
529
524
522
521
515
516
522
531
528
520
523
516
522
521
522
533
541
535
546
542
522
510
496
502
505
510
524
527
532
534
525
515
518
538
545
528
523
535
555
560
553
539
523
519
521
540
564
570
561
542
538
528
512
510
512
527
535
526
520
512
517
528
534
537
537
513
492
493
502
506
508
500
498
495
506
520
526
533
533
528
547
591
659
744
837
909
958
988
970
891
802
697
584
480
401
359
329
311
311
325
347
378
413
439
470
481
472
465
454
442
432
446
468
488
488
476
479
486
472
478
475
471
468
467
471
478
492
506
509
509
502
503
511
518
512
508
511
506
503
498
507
526
528
536
528
515
517
518
520
537
542
541
510
500
521
543
551
549
549
553
546
533
527
531
553
564
551
549
559
568
571
574
575
575
581
587
598
616
619
610
610
598
590
583
598
603
596
584
593
610
608
612
607
596
592
587
588
594
598
588
578
560
555
549
546
546
548
551
541
516
483
476
472
467
471
457
421
406
407
412
400
389
381
386
390
392
388
374
366
366
376
401
410
403
401
407
410
404
401
397
400
399
400
402
401
394
386
401
408
408
424
446
447
436
423
419
441
455
451
441
441
446
458
452
457
468
465
468
452
453
462
475
479
477
464
454
460
466
470
478
482
483
482
471
460
451
439
446
473
490
500
503
505
494
482
468
464
469
471
464
467
470
472
476
486
481
475
485
495
487
474
469
484
489
491
494
483
477
490
518
516
508
504
504
507
497
482
484
481
481
481
481
485
486
485
509
517
515
514
494
488
488
496
505
490
489
492
505
511
521
524
526
524
510
499
501
528
531
518
501
498
503
495
488
490
515
537
533
525
525
517
499
488
496
510
523
539
547
534
510
487
489
498
512
505
502
507
501
509
534
547
539
525
510
513
515
519
525
535
545
539
544
528
516
499
510
525
535
528
515
519
510
494
490
502
517
518
525
544
536
514
514
520
516
514
509
516
523
526
545
563
567
566
541
499
486
499
505
512
524
523
525
531
516
505
511
515
521
523
532
547
545
547
572
594
580
549
542
551
534
530
553
557
542
535
549
559
542
538
545
533
528
531
534
529
508
489
483
486
502
514
505
502
515
519
506
499
489
498
523
536
536
580
651
731
816
896
968
995
985
938
857
771
670
576
472
382
337
318
316
322
337
360
402
431
443
452
456
452
451
472
500
504
474
457
465
464
466
474
478
478
469
476
496
513
512
518
508
496
487
488
475
481
488
490
496
506
516
515
508
522
548
553
533
512
507
514
530
541
549
548
537
526
519
515
516
544
574
571
572
566
548
549
553
565
559
556
562
563
570
569
574
575
575
573
570
560
567
582
595
594
592
600
617
622
632
644
655
640
624
612
608
612
629
621
595
594
612
627
617
602
579
555
545
536
539
544
526
513
514
509
509
509
507
503
485
476
466
438
425
425
410
392
385
382
373
379
380
384
393
385
390
405
415
395
393
406
398
389
391
408
411
409
400
405
413
409
411
411
414
412
420
420
424
441
440
438
444
444
446
452
452
456
469
472
480
475
458
458
463
461
456
464
467
478
474
476
481
486
479
469
456
449
446
465
485
510
513
493
477
467
477
497
509
510
506
476
460
464
476
470
466
460
467
470
477
484
480
490
497
495
476
476
491
505
514
514
499
486
478
482
480
487
489
481
502
508
497
487
470
463
482
496
503
496
495
486
487
482
487
498
501
509
512
507
507
508
519
521
508
507
503
494
508
513
482
473
489
516
529
520
509
509
491
492
503
498
486
505
509
498
494
506
539
548
549
528
502
491
499
508
504
505
497
491
493
506
512
504
507
510
513
526
532
535
539
538
524
516
519
512
503
493
500
515
524
542
549
528
512
510
519
528
520
506
499
502
501
507
523
526
519
506
508
519
528
537
539
540
542
536
507
487
491
509
525
527
517
515
517
501
504
507
509
518
529
533
510
518
531
529
534
542
525
505
520
529
535
533
523
522
518
519
524
530
528
522
519
530
552
552
560
554
551
539
537
528
520
526
535
530
536
541
552
551
556
560
567
560
528
510
515
510
508
510
518
514
495
490
505
514
508
504
490
490
488
489
503
530
546
563
578
620
697
767
842
910
969
1007
972
895
810
708
613
499
392
331
304
298
303
324
345
373
409
433
448
458
460
462
491
505
507
474
441
454
470
462
451
462
486
487
481
480
476
488
503
504
504
506
496
499
495
488
499
519
542
556
530
500
490
506
524
517
509
510
512
514
507
498
515
536
543
543
546
540
533
515
518
533
544
552
564
576
582
570
569
556
530
522
524
540
558
565
558
559
577
589
587
580
585
578
586
601
613
623
615
602
608
623
620
604
588
587
576
576
575
572
579
588
583
574
574
572
567
556
546
535
531
538
527
506
499
486
455
452
463
459
450
454
453
427
400
395
393
393
406
400
388
371
372
388
389
397
393
387
387
388
386
394
406
414
404
398
406
424
451
463
446
423
416
408
414
431
435
445
456
466
466
462
457
445
437
446
462
463
456
448
451
466
476
487
487
481
478
470
467
464
459
459
478
482
481
483
472
471
472
481
480
494
504
488
462
458
466
478
485
472
461
465
475
473
466
458
452
463
477
477
489
500
502
490
489
506
509
499
481
466
467
464
478
495
499
494
481
480
492
500
504
518
502
491
491
494
499
504
499
495
495
490
491
495
496
489
487
484
498
514
524
529
522
527
523
520
515
518
516
497
475
467
483
497
510
522
525
524
517
512
502
498
499
511
520
526
522
516
507
505
516
530
532
533
535
522
524
521
503
507
513
526
538
537
535
530
521
522
528
525
514
515
516
511
510
515
523
537
543
532
506
505
517
522
514
508
513
517
530
538
536
536
551
544
508
495
494
507
516
523
520
528
529
525
533
527
527
533
539
548
556
556
558
536
525
513
527
543
548
541
522
524
534
538
548
543
544
525
520
523
529
530
546
568
567
557
557
561
563
547
537
540
536
523
513
516
528
537
553
547
532
530
529
529
526
526
527
514
488
478
493
517
524
522
524
524
514
505
521
585
656
723
797
867
931
973
967
930
866
781
681
575
467
384
321
295
294
316
346
370
391
418
436
437
429
425
449
471
487
478
474
481
491
496
501
496
495
483
475
482
491
497
491
483
484
488
506
524
521
512
495
488
495
507
522
526
511
510
513
516
518
518
525
534
538
534
541
525
507
507
507
506
511
519
538
560
561
558
554
558
554
550
536
525
533
536
546
558
569
582
574
576
581
587
596
617
614
585
582
590
579
559
556
573
590
604
618
614
609
601
593
593
597
588
590
601
591
576
580
577
556
548
537
534
543
531
518
525
529
512
483
460
457
455
443
437
421
416
426
426
412
396
393
400
411
420
415
416
403
379
380
390
392
399
412
408
399
394
390
389
394
402
402
395
399
419
437
444
433
421
429
450
457
480
495
494
492
470
440
444
451
452
462
469
465
454
465
480
486
496
504
496
490
479
456
456
463
469
473
483
486
481
493
499
493
499
500
506
505
499
493
468
452
452
469
488
502
495
491
489
484
489
494
502
506
514
508
496
473
462
470
484
498
491
492
505
507
500
493
498
515
519
510
509
501
494
489
487
496
490
492
494
493
497
506
513
501
501
503
487
490
485
496
511
518
512
509
502
500
501
496
501
515
527
528
527
518
500
501
510
509
508
505
501
500
508
511
522
540
529
514
509
523
529
512
507
509
514
517
507
500
505
511
513
508
510
508
505
510
519
527
534
540
532
517
501
496
509
523
516
501
503
508
512
519
526
526
516
523
533
526
520
511
501
500
503
509
524
544
551
541
527
510
499
496
498
506
506
505
507
506
525
537
541
537
519
498
504
519
534
536
537
505
485
491
498
521
525
528
532
534
543
547
552
553
548
534
515
508
506
511
532
536
546
543
532
524
521
533
537
536
537
537
535
518
512
518
537
543
542
537
527
515
495
504
518
513
529
532
495
487
491
483
487
496
499
502
506
505
514
564
646
741
832
920
977
987
972
920
853
766
656
557
459
374
310
293
304
321
342
380
413
432
442
439
421
431
449
459
455
447
429
429
446
478
501
512
497
483
471
470
466
465
475
476
486
499
498
497
503
509
513
508
492
480
484
489
502
518
523
532
528
524
520
518
510
511
520
519
505
511
526
524
514
514
535
546
556
559
562
563
549
542
545
548
549
558
566
578
595
583
564
566
574
583
577
576
579
577
594
615
628
627
602
576
573
574
576
592
596
602
605
595
592
604
607
603
610
606
585
570
570
575
564
551
541
532
518
511
501
484
480
479
474
467
454
433
413
399
403
415
416
421
416
398
380
379
388
390
396
397
400
392
379
372
387
395
406
408
408
406
396
400
415
431
423
407
402
406
425
440
445
446
428
423
439
436
441
446
455
465
459
454
455
465
476
468
459
486
502
492
468
446
446
457
467
471
470
470
464
461
469
471
474
490
493
478
472
461
463
489
500
492
493
491
496
489
476
461
469
478
491
500
485
478
465
476
476
474
473
484
485
477
483
486
488
506
514
510
500
484
489
500
493
492
513
510
503
512
516
511
504
486
474
481
500
495
490
500
503
500
499
511
513
510
509
503
495
496
496
508
516
508
495
487
518
540
527
513
516
516
501
502
507
498
496
505
506
512
518
530
536
536
533
533
531
509
495
499
505
507
526
532
533
538
523
517
513
516
530
524
511
519
533
533
528
528
527
523
533
538
537
529
525
526
528
520
524
542
545
527
510
496
504
517
521
514
504
508
520
535
534
515
517
517
522
531
533
522
516
514
508
510
531
548
552
548
543
545
531
515
508
510
515
513
514
510
509
508
508
531
547
552
543
544
555
545
544
551
546
549
540
532
538
533
527
526
531
537
540
548
560
548
538
540
538
531
523
513
505
501
495
508
509
516
528
531
518
502
499
499
504
505
500
506
515
508
510
539
580
635
684
745
826
907
965
986
977
924
843
720
592
480
396
345
315
313
328
344
358
384
389
400
412
431
445
459
465
466
481
495
501
493
487
490
494
477
474
493
494
476
481
490
503
500
489
497
499
501
510
520
533
530
516
512
504
501
504
522
528
526
522
524
530
540
541
529
535
543
551
573
586
578
554
551
560
556
550
541
538
550
565
567
561
569
563
562
567
570
568
567
561
554
563
592
620
625
622
629
624
609
598
586
591
597
601
603
618
639
632
625
617
604
602
582
563
574
593
590
582
583
586
566
544
543
540
525
521
515
511
512
493
470
471
472
452
427
409
410
413
412
400
399
395
410
425
429
404
384
386
390
380
377
386
392
405
397
399
406
412
412
414
409
414
420
428
431
436
441
456
442
422
416
430
447
457
453
461
465
463
468
480
465
454
464
476
477
482
484
476
480
479
474
468
454
443
455
475
491
486
495
500
482
472
483
490
484
480
494
493
472
461
456
461
479
497
503
500
477
469
481
485
482
488
497
504
498
478
455
460
465
460
477
495
502
504
494
488
494
494
497
501
498
490
476
462
472
497
502
505
506
512
522
519
508
501
503
501
497
492
480
468
474
481
490
501
510
516
520
516
534
522
496
498
512
524
533
526
513
513
517
522
523
507
488
486
494
508
512
507
508
488
476
489
506
530
527
522
522
504
496
489
497
514
534
531
502
492
515
529
524
514
514
528
528
536
530
509
502
503
511
527
531
522
514
519
512
523
526
528
518
494
488
490
504
505
499
506
526
546
549
536
516
520
531
533
531
510
496
503
503
516
527
542
540
533
546
548
553
561
549
534
518
528
535
533
546
563
558
555
574
572
538
500
476
489
526
542
548
547
547
543
549
551
569
562
553
549
534
515
501
499
505
514
509
505
505
495
495
508
538
547
540
527
515
516
553
616
682
745
823
917
975
976
949
887
802
718
613
507
415
347
317
303
316
347
373
388
395
419
447
461
460
468
471
477
473
462
450
455
470
483
481
495
499
484
486
483
494
497
508
514
517
506
508
514
516
517
516
515
518
511
502
506
522
525
529
544
553
528
497
509
539
540
493
483
497
521
529
527
536
552
554
547
544
544
547
556
565
562
569
581
577
569
572
576
566
572
583
582
578
565
564
589
611
619
600
579
578
575
577
582
577
583
601
606
598
598
591
577
591
599
599
593
583
562
560
569
591
590
569
557
537
524
526
507
482
480
481
469
454
446
440
427
420
414
416
425
414
394
378
377
384
388
386
381
375
372
385
399
406
412
405
394
398
391
388
388
405
413
413
402
400
406
422
435
442
445
442
447
452
450
447
451
464
470
473
471
465
445
441
452
462
462
464
471
472
469
470
475
474
469
474
470
476
488
483
474
469
469
461
467
475
478
474
475
480
486
489
483
475
471
476
469
461
479
497
487
471
480
496
495
478
475
472
466
472
483
491
495
494
480
470
477
481
479
491
498
501
510
513
508
487
469
458
460
478
492
492
486
488
490
492
491
500
517
526
513
507
496
486
485
491
505
506
495
499
495
496
488
479
489
498
496
494
498
492
485
483
483
496
518
517
519
531
545
542
526
509
497
490
492
521
528
517
515
521
519
500
475
475
500
526
531
536
535
519
509
504
510
511
515
519
516
514
512
507
531
543
531
525
520
514
513
521
524
530
536
531
515
493
491
513
537
552
541
520
509
512
507
513
513
524
542
550
545
547
547
520
510
514
521
517
520
519
515
522
525
525
528
536
529
527
527
540
549
529
520
522
525
544
545
542
545
562
567
554
545
542
531
532
552
557
550
541
531
540
541
537
539
519
523
532
507
501
496
498
512
517
519
514
497
496
496
486
496
497
499
518
532
551
588
648
719
784
862
946
992
990
939
874
788
671
541
431
360
331
326
325
329
343
362
377
394
418
436
446
451
446
435
447
468
468
476
473
463
470
480
473
472
480
477
474
473
469
480
497
501
510
511
515
508
488
487
496
497
499
510
517
504
492
493
501
510
491
493
509
518
520
514
524
521
535
537
515
504
504
522
551
576
574
563
547
540
534
539
549
557
550
551
542
530
555
581
597
620
613
592
577
571
557
556
574
590
607
608
593
595
613
621
627
611
598
591
587
584
582
588
593
584
575
576
566
567
554
551
547
544
527
512
505
490
480
483
486
474
452
437
434
438
453
456
441
428
419
430
424
390
371
366
385
399
421
448
423
397
375
360
366
380
402
414
394
368
384
419
405
406
432
417
393
377
378
387
413
427
442
437
417
400
406
391
388
390
394
410
381
361
366
361
349
351
364
356
337
338
356
372
381
343
303
295
333
363
367
334
313
309
311
318
305
283
269
285
359
394
355
326
324
322
320
329
353
370
333
304
288
323
361
384
432
509
577
641
638
654
692
705
760
911
1023
1023
1023
1023
1023
1023
1023
1023
1023
1023
1023
1023
1023
1023
1023
1023
1023
1023
1023
1023
1023
1023
1023
1023
1023
1023
1023
1023
1023
1023
1023
1023
1023
1023
1023
1023
1023
1023
1023
1023
1023
1023
1023
1023
1023
1023
1023
1023
1023
1023
1023
1023
1023
1023
1023
1023
1023
1023
1023
1023
1023
1023
1023
1023
1023
1023
1023
1023
1023
1023
1023
1023
1023
1023
1023
1023
1023
1023
1023
1023
1023
1023
1023
1023
1023
1023
1023
1023
1023
1023
1023
1023
1023
1023
1023
1023
1023
1023
1023
1023
1023
1023
1023
1023
1023
1023
1023
1023
1023
1023
1023
1023
1023
1023
1023
1023
1023
1023
1023
1023
1023
1023
1023
1023
1023
1023
928
777
658
583
567
580
562
504
394
256
152
91
86
114
111
68
37
21
12
7
5
3
2
2
2
1
1
1
1
1
1
1
1
1
1
1
1
1
1
1
1
1
1
1
1
1
1
1
1
1
1
1
1
1
1
1
1
1
1
1
1
1
1
1
1
1
1
1
1
1
1
1
1
1
1
1
1
1
1
1
1
1
1
1
1
1
1
1
1
1
1
1
1
1
1
1
1
1
1
1
1
1
1
1
1
1
1
1
1
1
1
1
1
1
1
1
1
1
1
1
1
1
1
1
1
1
1
1
1
1
1
1
1
1
1
1
1
1
1
0
1
1
1
0
1
0
1
1
1
1
1
1
1
1
1
1
1
1
0
1
0
1
1
1
1
0
1
1
1
1
1
1
1
1
1
1
1
1
1
1
0
1
1
1
0
1
1
1
1
1
1
1
1
1
1
1
1
1
1
1
1
1
1
1
1
1
1
1
1
1
1
1
1
0
1
0
1
1
1
1
1
1
1
1
1
1
0
0
1
1
0
1
1
1
1
1
0
1
1
1
1
1
0
0
0
0
1
1
1
0
1
0
1
1
1
1
0
1
0
