489
474
469
480
498
514
517
503
484
470
467
479
499
516
520
508
490
474
470
482
501
516
521
510
494
480
477
489
508
526
531
521
502
486
481
492
511
526
530
517
497
484
482
495
515
531
535
523
503
488
485
496
513
527
530
519
501
489
486
498
517
531
534
522
501
486
483
496
517
531
534
521
501
485
481
494
514
531
535
524
504
489
487
500
520
534
537
523
503
490
487
500
521
535
536
522
503
488
483
495
515
531
535
523
504
490
488
500
519
534
537
524
505
491
488
501
520
536
539
525
505
491
489
502
521
535
537
525
506
491
489
503
524
538
540
525
504
488
484
497
516
531
535
524
504
489
486
498
518
535
539
526
505
490
486
499
520
536
541
528
508
493
490
504
524
539
541
527
505
490
487
500
521
538
539
524
504
490
488
502
522
537
539
527
507
492
490
503
523
538
540
529
511
497
495
507
526
541
543
529
508
493
490
502
521
536
538
525
506
493
491
505
524
539
540
526
506
491
490
504
524
540
543
530
509
493
489
501
521
537
539
524
505
493
491
504
525
540
542
528
508
493
490
504
524
539
540
526
506
491
489
504
525
539
540
527
508
494
493
506
524
537
538
524
502
486
484
497
519
534
538
527
508
495
495
509
528
542
543
528
507
492
490
504
524
539
540
526
506
492
490
505
524
539
540
525
506
491
488
501
521
536
537
523
503
490
488
503
523
537
538
524
503
489
486
500
520
534
534
520
500
488
486
500
520
536
539
525
505
493
491
504
524
539
540
524
505
492
491
504
524
538
539
524
504
491
489
503
524
539
540
526
506
492
492
506
527
543
544
531
510
495
491
504
524
540
541
526
507
494
493
507
527
541
541
526
507
493
492
507
527
542
544
529
509
494
491
503
524
539
540
527
507
493
491
504
523
537
540
527
508
494
494
512
531
544
545
529
509
495
494
508
529
543
542
526
506
493
491
506
525
539
540
525
506
492
491
505
526
541
542
528
507
493
495
510
529
543
544
529
509
495
493
506
525
540
541
527
507
494
493
507
528
542
542
526
505
491
490
504
526
542
543
528
508
494
492
506
526
541
542
528
508
495
494
508
527
540
539
524
504
493
494
508
529
543
542
526
505
493
492
507
528
541
540
523
502
491
492
506
526
541
542
528
509
495
494
508
527
539
539
523
505
494
495
511
530
543
544
528
506
493
492
507
527
541
541
525
505
491
492
508
529
544
544
530
511
497
496
511
530
544
545
529
508
495
495
511
532
545
543
528
509
496
497
513
532
545
545
530
512
498
499
514
533
546
546
531
509
494
493
507
527
540
540
525
504
489
488
503
524
538
537
522
503
491
490
506
526
540
541
526
507
495
495
509
527
542
543
528
509
496
496
510
531
545
545
528
507
494
493
508
527
541
542
525
505
492
493
509
530
543
542
525
505
492
492
507
528
542
542
528
508
494
493
507
526
538
538
524
505
492
490
504
526
541
541
524
504
491
491
507
529
543
541
524
503
488
489
505
526
540
542
527
508
496
497
511
531
544
543
527
508
495
497
512
531
544
543
528
509
496
496
509
529
544
543
528
509
496
497
511
531
545
543
525
504
491
492
509
530
543
541
525
504
491
493
509
529
543
543
529
511
497
498
514
532
546
546
529
510
498
499
514
533
546
546
530
511
497
496
511
531
544
543
526
505
492
494
510
532
545
543
526
504
491
491
507
526
540
538
522
502
490
491
506
526
541
539
524
506
495
497
513
533
546
545
530
512
501
502
519
538
551
550
533
512
499
499
516
535
546
542
524
503
491
493
509
530
542
540
525
507
496
497
512
529
542
539
522
503
492
494
509
529
543
543
527
507
496
496
512
531
544
543
527
506
492
494
511
529
543
542
524
503
491
492
508
529
542
539
521
501
489
491
508
528
541
539
523
502
490
492
507
527
539
538
520
499
487
491
508
529
542
541
525
505
492
492
508
530
545
543
527
508
496
497
514
534
547
544
527
505
494
497
517
537
550
547
531
511
499
499
516
535
548
546
530
510
497
499
517
537
549
546
528
508
495
496
512
532
543
541
523
504
492
496
515
534
544
541
524
504
493
496
513
533
546
546
530
511
499
501
517
536
547
545
529
511
500
503
520
540
553
551
534
513
500
502
519
537
549
546
529
510
497
499
517
537
549
545
526
506
495
499
517
536
545
541
525
507
495
497
513
531
542
540
523
503
491
491
508
528
541
537
520
501
489
490
508
529
542
539
522
500
487
490
508
528
540
537
521
500
489
493
513
534
545
542
526
506
494
497
514
533
544
541
525
507
495
496
512
532
544
541
523
503
490
492
510
531
543
540
522
503
492
495
513
534
547
543
525
504
492
495
514
535
549
546
529
511
500
502
518
537
548
543
526
506
495
498
516
534
544
540
522
503
493
498
517
537
549
545
528
508
497
499
515
535
547
542
524
505
493
498
517
536
549
543
523
502
491
495
512
530
542
537
520
501
490
495
513
533
544
539
520
500
488
493
513
534
547
542
523
504
492
494
510
529
541
538
520
499
488
492
512
534
547
542
524
503
490
494
511
529
539
535
518
499
489
493
510
529
541
536
520
503
493
497
514
532
543
538
520
502
492
496
515
536
547
541
521
501
491
496
515
536
548
543
525
505
493
497
515
532
543
538
520
503
494
498
516
533
543
538
520
500
488
491
508
527
538
535
517
498
488
492
510
531
543
539
521
499
486
490
508
528
540
537
520
503
494
499
518
537
548
542
525
506
496
499
517
538
550
545
526
507
496
500
516
534
545
540
523
504
493
496
514
532
543
539
522
502
490
495
515
537
548
542
525
504
494
499
516
535
546
540
522
503
493
498
516
534
545
538
520
501
491
495
513
532
542
536
518
497
487
492
509
528
540
535
517
499
489
492
510
530
542
538
521
501
492
498
519
539
550
543
524
505
495
500
518
536
545
538
519
502
492
497
515
532
542
537
519
501
491
496
514
533
544
540
523
503
491
493
510
529
541
536
517
498
487
492
509
528
537
532
514
497
489
495
515
535
545
539
520
501
491
496
514
532
543
538
519
499
489
491
508
528
539
532
514
496
486
491
509
530
542
538
521
503
492
498
517
537
547
542
524
505
494
499
517
536
546
540
522
503
492
496
515
534
544
536
517
497
487
494
513
533
545
538
518
498
488
493
510
529
540
534
515
495
487
496
516
536
547
539
519
498
488
495
514
532
540
532
514
496
487
494
513
532
542
536
518
500
489
494
512
531
542
536
518
498
487
492
509
528
540
534
516
495
481
485
504
525
536
530
511
493
484
491
510
530
542
536
517
497
488
494
513
531
540
532
513
495
485
491
509
529
541
535
518
500
491
497
515
532
542
537
520
501
490
495
513
533
542
535
516
498
489
495
513
532
542
535
513
494
485
494
515
535
546
540
521
503
493
501
519
537
545
537
518
500
492
499
518
536
546
539
520
500
491
497
516
535
545
537
519
501
491
497
516
535
545
539
520
502
492
499
518
537
544
535
516
498
491
499
519
538
548
542
523
502
492
498
517
536
546
539
519
501
492
498
518
536
546
539
520
501
491
497
517
535
544
536
517
499
490
496
516
535
544
535
516
497
487
493
513
533
543
536
516
496
488
496
516
535
545
536
518
498
489
495
515
534
543
538
520
503
495
503
524
542
551
542
523
504
495
501
520
539
546
538
518
500
491
498
516
533
542
535
517
498
488
494
515
534
542
534
515
497
488
494
513
533
545
539
519
501
493
502
523
543
550
541
519
501
492
498
516
534
543
535
517
500
491
500
519
537
545
537
517
498
491
497
516
534
542
533
514
497
489
497
516
535
545
539
519
501
492
499
519
537
546
538
520
502
494
501
520
539
548
538
519
501
494
504
523
542
551
541
521
502
493
501
522
541
549
540
523
506
496
502
519
537
545
537
518
500
492
502
523
543
552
543
523
503
492
500
521
539
548
541
523
507
499
506
523
538
546
538
520
502
495
503
524
541
549
542
523
504
495
503
522
540
548
539
520
503
495
503
523
543
553
543
522
503
494
502
521
539
545
535
516
499
492
501
522
540
546
537
519
503
494
501
520
538
546
536
517
498
491
501
522
542
552
543
522
504
497
506
526
544
552
542
522
504
496
505
526
546
556
548
529
512
505
515
533
548
554
543
523
505
498
508
529
546
553
543
524
507
499
507
527
544
549
539
519
501
492
502
523
542
549
540
520
503
495
504
524
541
548
538
518
501
495
505
524
541
548
537
517
500
494
504
524
542
550
542
524
507
499
508
526
545
552
543
525
507
501
513
533
550
559
548
528
509
500
509
529
548
555
544
524
505
498
508
527
545
552
542
523
505
498
509
528
546
553
545
527
510
504
514
534
550
557
546
525
506
498
508
529
548
555
544
523
505
498
508
530
548
553
542
523
504
497
507
528
548
555
544
525
509
503
512
531
547
554
545
527
510
503
513
533
550
556
547
525
505
496
506
525
542
548
538
519
504
498
509
530
548
554
542
520
500
493
504
527
545
551
541
522
505
499
509
528
543
548
537
517
500
493
502
521
538
545
534
514
496
491
500
519
535
540
529
509
492
487
499
521
539
546
537
519
502
496
508
529
545
552
541
522
507
502
513
533
550
555
544
524
507
501
510
530
546
551
541
524
509
504
513
532
548
554
543
524
506
498
509
530
548
553
541
521
503
496
509
530
548
555
543
522
505
498
507
526
543
548
536
516
498
493
504
524
540
546
536
517
501
494
504
523
538
544
535
516
498
491
502
523
540
545
533
511
495
489
501
521
538
544
532
509
492
487
497
517
533
538
526
508
494
488
497
517
534
540
528
509
494
489
500
520
537
543
530
509
492
486
496
517
533
539
529
509
493
487
498
519
537
543
531
510
495
489
501
522
539
545
534
514
497
492
503
522
536
541
528
508
492
489
503
525
541
547
537
517
499
492
503
523
540
546
534
516
501
496
507
527
543
549
537
516
499
492
503
521
537
542
531
512
497
494
506
526
543
548
537
517
501
495
506
525
541
545
533
513
496
492
506
528
546
551
539
516
498
493
506
529
547
551
538
518
500
495
507
526
541
544
532
514
499
495
507
528
544
548
536
516
500
496
509
530
545
548
537
517
500
494
505
526
542
546
532
511
496
491
504
523
538
542
529
508
493
489
501
520
536
540
527
506
492
489
502
521
537
539
526
506
490
485
496
517
533
536
524
504
488
483
495
515
532
536
523
502
486
482
496
518
536
542
532
513
496
490
502
522
538
542
529
508
494
492
506
526
541
545
532
512
498
496
510
531
546
549
535
516
500
497
511
532
549
552
539
519
503
499
512
532
549
553
540
519
504
501
516
537
552
554
538
517
501
496
510
531
548
551
536
516
500
495
506
526
543
547
533
513
497
493
504
523
537
540
528
509
493
489
501
521
537
541
527
505
489
485
499
520
535
536
522
502
488
485
499
519
536
540
527
509
497
496
508
526
540
541
527
507
492
489
502
522
538
541
527
506
491
487
502
524
540
545
532
512
496
493
507
527
542
543
528
506
492
491
505
527
541
542
526
503
488
485
499
519
536
540
524
504
490
487
501
522
538
540
527
506
492
491
504
524
540
542
529
510
497
494
508
528
544
546
533
513
499
495
509
530
545
547
532
511
495
493
508
529
544
545
530
509
494
491
503
523
538
541
527
507
492
490
505
524
537
538
524
504
491
488
501
521
536
536
521
501
488
487
502
523
540
542
527
507
492
489
502
522
538
540
526
506
492
491
506
527
541
541
525
504
490
487
500
520
535
537
524
506
494
491
500
518
533
537
524
503
489
488
502
523
538
539
523
502
488
487
503
526
540
540
525
505
491
489
505
524
537
538
524
506
493
491
504
523
537
538
524
505
492
491
506
526
541
540
525
504
489
488
503
524
540
541
527
509
497
497
512
531
543
541
524
502
489
489
504
524
538
537
522
503
489
488
503
524
538
539
525
506
491
489
505
527
542
543
528
508
493
492
507
528
542
543
526
505
493
491
503
522
536
537
522
504
492
490
504
523
537
538
524
505
490
488
502
522
536
537
522
502
488
487
502
523
538
538
524
504
492
491
504
524
538
538
522
502
489
490
505
526
539
536
519
498
486
487
503
524
537
538
523
503
489
487
502
524
539
539
524
504
490
489
504
522
535
534
520
502
489
488
503
524
538
538
522
501
488
488
503
522
537
536
518
497
484
486
502
523
539
538
522
504
492
492
506
526
540
540
523
503
491
492
507
527
542
543
528
508
493
492
506
526
539
537
521
500
489
491
509
529
540
538
522
501
488
488
505
525
537
534
518
499
487
489
506
527
539
538
523
503
490
489
504
523
536
535
519
498
484
485
501
523
536
534
518
498
486
486
503
524
538
536
520
500
488
489
506
528
542
539
522
502
490
490
505
526
539
538
523
503
491
492
506
525
539
538
521
502
489
488
503
523
536
534
517
497
485
487
503
524
538
536
518
497
486
489
504
525
538
538
523
504
491
491
505
524
537
536
520
500
487
489
505
525
537
536
520
500
489
492
507
527
540
540
524
503
490
492
508
528
540
536
520
500
489
491
508
528
540
538
521
500
487
488
505
526
540
538
523
505
494
495
510
529
541
537
521
501
488
491
507
528
542
540
526
506
494
496
512
532
545
543
526
506
493
495
513
533
543
538
521
503
492
496
514
533
546
543
526
506
494
496
513
533
545
542
525
506
492
492
507
527
540
536
519
500
488
490
506
526
538
536
519
501
490
493
510
529
541
538
522
504
492
493
509
529
543
539
523
503
491
494
511
531
545
542
524
503
491
494
511
530
542
540
524
504
494
498
514
532
543
539
521
501
489
492
511
533
547
545
527
506
493
497
515
534
546
542
526
509
497
499
515
534
544
540
524
507
498
501
517
536
547
543
526
505
493
495
511
530
542
538
521
502
491
494
511
530
542
538
522
504
494
498
514
533
544
540
523
503
491
495
513
533
545
541
524
504
491
493
510
529
540
536
520
502
489
491
508
528
540
537
519
500
488
492
510
531
543
540
523
504
493
497
514
534
546
543
527
508
498
503
520
538
549
544
527
509
497
501
519
538
548
543
527
508
497
500
518
537
550
547
530
510
497
498
516
537
549
544
526
507
496
501
520
540
550
544
526
507
498
503
522
542
552
547
528
509
497
500
516
535
546
543
526
506
495
499
517
536
547
544
527
508
497
501
519
539
551
546
529
509
496
499
515
535
548
544
526
506
496
501
519
539
551
546
528
509
499
502
519
538
549
542
524
505
495
499
517
536
545
539
520
500
490
495
514
535
548
544
526
506
496
502
520
538
549
543
525
508
499
506
523
540
550
544
527
508
498
503
520
538
548
543
526
507
496
499
516
535
547
543
525
506
495
498
515
534
544
539
522
504
494
500
519
540
551
546
528
508
498
502
518
536
546
539
522
505
495
498
514
531
541
537
521
503
492
496
514
534
545
541
523
504
494
499
517
538
549
544
526
508
498
503
522
542
553
546
527
507
497
503
521
539
550
543
526
507
498
504
524
544
554
547
530
512
502
507
526
545
554
548
529
509
497
502
520
540
551
545
526
506
496
501
520
541
552
545
526
506
496
501
520
539
549
543
525
508
498
503
522
540
550
542
524
507
499
506
525
542
551
544
524
504
492
497
515
534
544
539
522
504
493
500
519
540
549
542
523
504
496
503
523
544
554
547
528
509
499
504
523
540
549
542
524
506
497
504
523
540
548
539
520
501
492
496
516
535
546
542
525
506
496
504
525
544
553
546
527
508
497
504
524
542
550
543
524
506
497
504
524
543
552
544
527
511
502
508
527
546
554
546
527
507
496
502
521
541
550
540
520
501
493
502
524
546
555
547
527
507
497
506
526
546
556
547
526
506
496
504
523
542
551
543
525
508
501
509
529
548
556
548
530
510
501
508
527
546
554
546
527
507
499
508
528
546
553
544
524
505
496
504
525
544
554
547
528
510
501
508
527
545
553
544
525
508
502
512
532
552
561
552
533
516
508
514
531
548
557
550
530
512
502
508
526
543
552
543
523
503
495
504
524
543
553
543
523
504
495
503
522
541
549
540
522
505
496
504
523
542
551
544
525
507
499
506
524
542
548
539
521
505
498
507
526
544
551
542
522
503
495
503
524
543
549
539
517
497
490
499
519
537
544
535
518
502
496
505
525
542
549
540
523
507
499
508
528
545
553
544
527
510
501
509
526
542
548
539
522
506
499
507
528
546
553
542
523
505
497
506
526
544
552
543
524
507
499
508
528
548
555
544
524
507
500
509
528
546
552
542
524
507
501
510
529
546
551
541
521
502
495
505
525
543
551
542
524
506
500
512
532
551
557
547
528
511
502
509
528
544
550
542
524
506
498
507
524
541
549
540
521
504
498
508
527
545
553
543
524
508
500
507
525
543
550
540
521
504
499
509
529
544
550
539
519
501
495
504
524
542
549
538
519
502
495
504
524
542
549
539
518
501
495
506
524
540
547
536
516
499
492
501
522
540
547
536
515
496
490
499
518
535
541
531
512
496
489
499
518
537
544
534
516
501
494
503
524
541
545
533
513
498
492
503
522
539
545
534
515
498
491
501
520
536
544
535
516
500
494
505
526
543
549
538
517
500
495
507
526
542
547
535
516
500
495
505
524
540
544
532
514
497
492
503
523
540
546
536
516
499
492
501
522
540
548
539
519
502
496
508
529
545
550
539
520
504
496
508
529
546
551
540
520
503
497
508
528
544
548
536
516
499
495
507
526
542
547
536
516
500
495
506
525
542
548
537
517
503
499
510
529
545
548
533
512
496
491
503
524
541
544
532
513
497
492
503
522
539
543
530
509
495
492
504
524
539
542
530
509
494
491
504
525
543
547
535
514
499
494
506
527
544
548
534
513
496
491
505
527
543
546
533
513
498
494
506
526
542
545
532
511
495
492
503
522
538
544
531
510
495
491
503
524
541
545
532
512
495
491
503
525
540
543
530
509
494
490
502
522
539
543
532
513
498
495
508
529
545
548
535
515
501
496
508
526
541
544
533
514
498
493
506
525
541
543
528
506
488
484
496
516
533
536
522
501
485
481
494
516
533
537
523
503
488
487
500
520
537
541
529
508
494
492
505
527
541
542
529
509
493
489
503
524
538
539
526
507
493
491
502
521
537
540
527
506
491
488
500
519
536
539
526
505
490
487
499
521
538
541
527
505
490
487
500
520
535
535
521
501
487
484
498
518
534
536
523
502
487
484
499
520
537
541
528
508
494
490
503
524
541
545
532
511
495
491
505
525
539
541
528
508
494
492
505
526
539
539
524
504
489
486
499
519
534
534
520
499
486
484
496
515
530
532
519
499
486
486
500
522
539
541
527
509
496
494
509
528
541
541
527
505
489
485
499
522
539
541
526
507
493
491
505
525
539
539
524
505
491
489
503
523
539
540
526
506
490
488
