431
448
489
533
549
532
490
445
428
445
486
529
545
527
483
437
420
437
479
524
542
525
484
439
420
435
475
521
539
521
478
433
415
431
471
515
531
515
472
426
408
423
463
507
524
507
467
421
402
417
457
500
519
502
462
418
398
411
451
495
513
497
457
414
395
408
446
490
508
492
453
410
391
404
442
486
503
487
447
403
384
397
436
480
499
484
443
399
380
395
434
477
496
480
440
396
376
389
426
470
490
476
438
395
375
388
427
472
492
478
440
397
379
394
432
476
496
483
444
399
381
396
435
480
500
485
446
403
385
399
439
486
508
496
458
414
394
409
448
493
515
501
464
420
401
416
456
502
525
510
471
428
408
422
462
507
528
515
476
433
413
427
465
511
533
519
479
434
414
427
465
510
530
516
478
434
414
428
466
511
533
520
481
435
413
425
462
507
530
517
479
434
412
424
462
505
526
514
476
431
409
421
457
503
527
515
478
433
413
426
465
509
531
520
481
436
415
428
465
510
532
520
482
436
414
426
464
509
532
520
484
439
416
427
464
512
535
523
485
440
417
430
469
515
538
527
490
445
422
434
473
519
544
534
497
452
428
439
477
523
546
535
499
453
429
439
476
523
545
534
495
450
426
437
474
520
545
536
498
453
431
442
480
527
551
539
501
455
432
442
478
525
550
541
504
458
432
442
478
524
549
539
501
456
432
442
479
526
551
541
503
457
433
443
478
523
548
536
500
455
431
442
479
525
549
540
504
459
435
444
480
527
553
543
506
460
435
444
480
526
552
544
508
462
437
446
483
531
557
548
511
465
440
449
486
533
559
550
513
465
439
447
482
528
554
546
510
464
436
442
477
522
548
539
502
456
431
439
474
522
549
541
505
458
433
442
478
523
550
541
505
459
433
440
475
522
550
543
508
463
437
445
479
525
553
546
511
465
438
445
479
527
554
546
512
466
439
445
480
527
555
549
514
467
440
446
481
529
556
549
514
466
439
446
478
523
551
544
510
465
438
444
478
525
554
548
516
471
443
449
482
528
556
551
517
469
440
445
478
525
555
549
513
466
438
445
479
524
552
546
513
466
437
441
474
520
548
542
509
464
436
441
474
523
554
549
516
470
443
447
480
526
554
549
516
469
440
445
480
527
556
550
518
474
445
449
483
530
560
555
523
476
447
449
481
529
559
554
520
475
446
451
485
532
563
559
527
481
452
455
487
533
562
557
523
475
445
449
483
528
559
555
522
474
444
448
481
529
561
558
526
480
449
452
484
532
564
561
528
480
448
452
484
530
560
557
527
481
451
454
485
532
564
560
528
481
451
454
486
533
566
564
531
483
452
455
485
532
563
559
527
480
450
452
483
529
560
558
527
481
449
451
482
529
561
562
531
483
451
454
484
531
563
560
528
480
450
453
484
530
561
559
529
482
450
452
484
531
562
560
530
484
452
453
484
531
563
561
529
482
449
449
480
525
557
556
526
480
449
452
484
530
562
560
528
480
448
450
481
528
560
559
527
481
450
451
483
529
562
561
531
484
450
450
479
527
560
560
529
482
450
450
480
527
562
562
532
485
452
452
481
528
561
561
531
484
451
451
482
527
560
561
532
486
453
452
481
527
560
561
531
485
452
451
481
527
560
562
532
485
452
450
479
526
561
562
533
488
454
452
480
525
559
560
531
484
451
452
482
528
563
563
533
486
453
452
482
529
565
567
539
493
458
457
486
530
564
566
537
490
455
452
480
527
561
562
532
487
451
449
478
525
561
563
535
489
453
451
478
525
560
564
536
490
456
454
483
531
568
570
542
495
461
458
486
532
567
570
541
494
458
455
483
529
564
567
539
493
458
455
482
529
565
568
539
491
453
449
476
523
559
563
536
491
456
453
480
526
563
567
540
494
458
455
483
529
566
569
541
495
459
453
480
525
561
564
537
490
455
450
477
524
560
564
537
491
455
450
477
523
559
564
538
493
457
452
479
524
561
566
538
491
454
449
476
522
559
565
538
492
456
452
479
524
560
562
536
490
455
450
477
523
560
565
539
493
456
452
479
525
562
565
539
493
456
451
478
523
560
565
539
494
457
451
477
523
560
567
541
497
460
453
478
523
561
568
542
496
459
454
480
527
565
569
542
497
460
454
479
524
563
570
545
500
462
454
476
520
558
566
542
495
457
449
473
519
557
563
538
494
456
450
475
520
560
568
543
498
460
452
477
522
561
569
543
498
458
451
476
524
564
571
545
499
461
454
477
521
560
569
545
500
461
452
476
522
562
571
546
501
462
453
477
523
562
570
545
501
461
452
474
517
556
566
545
502
463
455
479
525
564
573
549
505
465
456
478
523
562
570
547
502
463
455
480
525
565
574
550
506
467
457
480
524
562
571
548
504
464
455
478
524
565
576
553
508
467
455
478
522
565
575
553
509
470
460
482
525
564
573
551
507
467
458
480
523
562
573
549
504
466
456
478
523
564
575
552
506
465
455
477
520
561
571
550
506
464
452
475
519
560
570
547
503
462
452
474
518
558
569
548
504
464
454
476
520
561
571
549
504
462
452
475
518
559
571
550
505
463
450
472
516
559
572
550
507
467
456
478
522
563
574
552
507
466
453
475
517
558
570
550
508
468
456
477
520
563
574
552
508
466
453
473
516
557
570
549
506
465
453
473
516
558
570
549
505
463
450
469
512
555
569
550
508
467
453
474
517
560
572
553
511
471
458
479
521
561
573
552
509
468
456
477
520
562
575
556
513
470
455
474
517
560
573
554
512
470
457
477
519
560
573
553
511
469
455
474
516
559
573
553
510
466
451
471
514
556
569
549
506
464
451
471
515
559
572
553
511
470
456
475
518
561
575
556
513
471
457
476
518
561
576
556
513
469
455
474
516
559
574
555
512
470
455
473
515
558
574
556
515
472
456
472
512
556
572
554
512
469
453
472
512
555
570
551
510
466
451
470
511
554
570
553
512
469
451
468
510
555
571
554
513
470
453
470
511
556
573
555
513
469
454
472
511
555
571
554
514
471
455
471
510
554
572
554
513
469
452
468
507
551
569
552
511
468
451
469
510
554
572
556
516
473
455
472
514
558
574
558
518
473
454
470
511
556
573
556
515
473
455
471
511
555
572
556
516
472
453
470
511
557
574
557
516
471
452
467
506
550
569
554
513
467
449
464
505
552
570
553
513
470
452
469
508
553
571
556
517
472
451
465
504
549
568
554
515
469
450
465
504
550
569
554
516
472
452
467
507
553
572
556
516
471
449
463
502
548
569
553
512
467
447
461
500
546
567
552
512
467
447
462
501
547
567
552
513
468
448
461
501
547
566
552
514
470
450
463
502
549
570
555
516
470
448
462
501
547
566
551
512
468
447
461
500
546
567
552
511
466
445
459
498
544
565
552
514
470
449
463
501
546
567
552
513
466
445
457
497
544
565
550
512
467
445
457
496
544
567
553
514
468
445
458
496
543
566
553
514
469
447
459
495
540
562
549
509
463
441
454
492
539
559
546
508
462
440
451
488
534
557
545
507
461
438
449
488
535
558
545
507
461
439
451
488
534
557
545
507
462
439
448
485
531
554
542
505
461
438
449
487
533
556
544
506
460
436
448
486
534
557
544
505
459
436
447
483
530
553
542
504
457
433
443
480
527
551
541
504
460
436
449
485
531
554
544
508
463
439
450
486
533
557
545
507
461
436
446
482
529
554
545
507
463
441
452
489
535
558
547
511
466
444
455
490
536
560
550
513
468
443
452
489
534
557
547
510
464
439
448
485
532
558
549
514
468
442
451
488
535
560
549
511
465
440
448
484
532
558
550
516
470
445
454
490
537
561
552
515
468
442
452
489
537
562
554
518
470
444
452
487
534
560
552
516
471
445
456
492
539
564
555
519
472
446
453
489
536
562
553
517
471
446
454
488
535
560
551
515
469
443
451
488
535
560
552
518
471
443
449
483
529
557
550
515
468
442
451
486
533
559
552
518
472
447
456
491
537
563
555
520
473
446
453
487
533
560
552
517
470
443
450
485
532
560
552
517
469
442
449
484
531
561
555
520
473
447
454
488
536
564
557
522
473
446
453
488
535
562
555
521
475
447
452
484
530
559
554
522
476
449
457
492
540
569
564
529
482
453
458
492
539
567
560
526
479
449
455
489
536
564
559
526
479
450
456
489
535
564
559
526
478
448
453
486
532
560
554
521
476
447
453
486
532
560
554
520
473
444
447
479
528
559
554
521
475
445
448
480
527
557
552
518
469
439
442
474
520
550
546
513
466
437
441
473
519
548
544
510
463
433
437
469
515
545
540
507
460
430
434
467
515
546
541
507
461
432
436
469
515
545
541
507
462
432
435
466
512
543
538
504
459
429
433
465
511
541
537
504
457
428
432
464
511
542
538
507
462
432
436
466
512
543
540
508
463
431
432
463
509
541
538
505
459
428
430
461
509
542
542
512
466
436
438
469
516
547
545
513
468
438
441
471
517
549
546
516
470
439
439
470
518
549
547
517
472
441
443
473
521
552
551
522
477
443
443
474
522
555
553
522
475
443
446
477
524
556
555
525
478
447
447
478
525
558
558
527
480
449
450
479
524
556
553
522
476
445
446
476
523
556
556
527
480
447
447
477
522
555
554
523
476
443
443
473
520
552
551
520
473
439
440
470
517
550
549
518
473
441
442
470
516
549
548
520
475
443
442
470
517
552
553
525
480
446
444
474
520
554
557
527
481
448
446
475
522
557
558
527
479
446
445
474
520
553
555
526
480
446
444
473
520
555
557
528
482
449
448
478
524
559
558
528
481
447
445
474
521
556
557
528
482
449
449
477
523
558
560
532
487
451
449
477
522
556
558
530
484
449
447
475
522
558
559
531
487
453
451
480
528
562
563
534
488
453
452
480
526
561
563
535
489
454
452
481
528
562
565
537
492
458
456
483
530
565
568
542
496
461
458
485
531
565
566
539
493
457
454
481
527
562
564
536
490
456
453
480
526
561
564
538
493
457
453
480
525
559
562
535
490
454
450
479
526
564
569
543
497
461
457
484
530
567
572
546
499
462
460
487
534
570
575
549
505
470
465
490
536
572
576
549
504
468
464
490
536
573
577
550
503
466
461
487
533
571
575
549
504
469
464
489
536
573
577
550
505
470
465
491
535
572
577
550
503
466
460
485
530
567
571
546
500
463
459
484
528
565
572
547
500
462
456
481
527
564
571
546
502
465
460
486
532
570
575
548
502
464
458
484
529
567
574
549
503
465
458
483
529
567
573
547
501
463
455
480
526
564
571
547
502
465
458
484
529
568
574
548
503
466
459
484
530
569
576
552
507
468
461
485
530
566
572
548
503
465
457
481
528
567
575
550
505
466
458
482
527
565
573
548
502
463
454
478
523
562
570
546
501
463
456
481
526
565
572
546
501
463
457
480
523
561
570
545
500
461
450
473
519
560
569
545
501
463
456
480
525
564
572
547
503
464
457
481
525
563
572
550
507
467
456
478
522
561
570
545
499
460
451
473
517
557
564
541
497
458
448
472
517
557
565
542
498
459
449
471
515
555
564
542
498
460
452
474
517
557
567
546
503
464
454
476
518
556
565
542
498
460
451
474
519
560
570
548
504
465
455
478
522
562
573
550
506
467
457
478
520
560
570
548
505
465
455
477
520
558
567
545
500
460
449
471
514
555
566
545
501
460
448
471
516
558
568
546
502
461
450
471
514
555
567
545
502
463
452
473
517
556
567
547
504
463
451
472
515
556
567
545
502
462
451
472
516
557
568
547
504
465
454
476
520
560
571
548
504
462
449
471
515
557
569
548
506
466
453
474
518
561
571
549
503
461
449
470
513
555
567
545
503
462
449
468
512
554
567
545
502
460
448
467
510
553
566
545
502
461
448
469
512
554
567
546
503
462
449
469
513
555
568
549
507
465
452
470
511
552
565
546
503
462
448
467
511
553
565
544
500
458
446
466
508
552
567
547
505
465
452
470
512
554
569
551
508
466
451
471
512
553
565
545
501
459
445
465
507
552
566
547
505
462
446
464
505
547
558
538
495
454
440
459
501
544
559
540
498
456
441
459
500
543
558
540
497
454
440
459
500
542
555
536
494
452
436
455
497
539
554
537
496
455
439
457
497
539
553
535
494
453
439
457
497
539
553
534
492
451
438
457
498
541
557
539
496
453
436
453
494
537
552
532
489
447
432
450
490
533
549
530
487
444
429
447
487
531
547
529
487
444
429
447
489
532
548
530
488
443
426
443
484
528
543
525
484
442
425
441
481
525
541
522
479
436
419
433
472
514
531
516
477
433
418
436
477
520
537
521
480
437
420
436
477
522
541
523
481
437
419
436
476
520
536
517
476
434
419
435
475
520
538
521
479
433
415
432
474
518
537
521
482
439
422
438
480
525
544
528
488
446
427
441
481
525
543
526
485
440
421
436
475
521
540
525
485
442
425
441
481
523
540
524
484
442
425
441
482
527
547
532
490
445
425
440
479
524
543
528
489
445
426
441
481
527
546
530
489
445
427
442
483
529
550
535
496
452
433
447
485
528
546
532
491
447
429
442
481
525
545
530
490
446
427
441
481
526
546
532
494
450
429
443
484
530
550
535
496
452
432
446
484
529
550
537
498
455
437
451
489
533
552
538
499
457
439
453
490
534
554
540
499
455
435
449
487
532
553
539
499
455
435
448
488
534
557
545
506
462
443
456
493
536
555
542
504
460
438
451
489
535
556
544
506
462
442
456
495
539
560
546
506
463
441
454
492
540
562
550
513
470
449
461
499
544
565
550
510
465
444
457
497
543
565
552
513
469
448
461
498
543
564
551
512
467
445
456
493
538
561
549
512
466
444
456
494
540
562
550
512
467
445
457
494
538
559
546
509
464
442
453
491
537
560
547
508
462
438
449
488
535
559
546
507
460
437
449
489
535
556
544
506
463
441
453
490
537
560
547
510
464
442
453
490
536
559
548
511
464
441
452
490
536
559
548
511
464
440
449
485
531
554
542
506
463
441
451
488
534
558
548
510
465
440
451
487
535
558
545
507
461
437
448
486
533
557
545
507
462
440
450
487
532
555
545
508
464
441
451
487
532
554
543
506
461
438
449
486
532
554
544
508
464
441
452
488
533
558
548
511
466
443
454
490
537
562
552
515
470
446
456
491
538
563
553
517
471
445
455
491
538
562
552
516
471
447
457
494
542
566
557
523
478
452
461
495
541
567
558
523
478
452
461
497
544
569
559
523
478
453
462
498
546
572
562
526
479
453
462
498
545
570
560
524
477
452
461
496
542
568
559
523
476
450
459
494
541
567
559
523
477
451
459
492
540
567
558
522
476
449
457
493
538
563
555
521
477
451
458
493
541
566
558
523
477
452
461
496
542
569
561
526
479
452
459
492
539
565
557
522
476
450
457
492
539
565
557
523
476
450
458
494
541
567
558
522
476
450
459
493
539
567
560
525
478
452
462
496
543
570
562
527
480
452
458
492
539
567
561
526
478
450
457
490
536
564
558
524
479
451
459
492
538
565
558
524
478
451
459
492
538
565
559
526
478
450
457
491
538
565
558
525
481
454
461
495
542
569
564
530
484
456
462
496
545
574
568
533
487
459
465
496
543
571
565
532
486
457
462
496
543
572
566
532
485
457
464
499
546
575
569
534
488
460
464
497
545
574
570
536
488
460
464
497
544
574
569
535
488
460
465
498
545
574
570
539
492
462
467
498
545
573
568
535
487
457
460
493
541
572
570
539
492
463
466
498
547
577
571
538
494
465
467
498
545
575
571
538
490
459
463
496
544
574
571
539
493
462
466
498
545
575
571
539
492
462
465
497
544
574
570
537
489
460
464
496
543
573
570
538
492
461
464
496
544
576
573
540
493
463
466
497
543
573
568
535
488
458
462
494
541
572
570
539
494
463
465
496
542
573
571
540
492
460
463
494
541
572
570
540
494
464
467
498
546
577
573
540
490
459
463
496
543
575
573
544
496
465
466
497
544
575
572
539
492
460
462
492
539
570
567
536
490
458
461
492
539
572
570
538
490
459
461
493
541
573
572
540
493
462
463
495
542
574
571
540
492
460
460
491
538
571
568
537
490
457
457
488
535
567
565
534
487
455
458
488
534
566
565
535
488
455
454
485
531
562
561
530
482
448
448
479
527
561
560
531
484
450
450
482
530
563
561
530
484
451
453
484
531
563
562
532
484
451
452
484
530
564
562
531
483
448
447
478
526
559
560
531
485
452
451
481
526
557
555
525
479
448
449
480
526
559
559
529
483
450
449
478
524
558
558
530
484
451
451
480
527
560
561
532
485
451
450
480
526
562
563
534
487
454
453
480
525
557
560
535
490
457
457
486
530
563
563
532
485
452
452
482
529
566
569
541
495
462
459
485
530
564
565
536
489
456
456
485
531
565
567
537
490
456
454
483
529
563
566
538
490
454
451
480
527
562
564
535
487
452
451
480
526
560
562
534
489
454
452
480
528
563
564
536
491
458
456
483
527
562
564
536
490
454
450
478
525
561
562
536
490
456
453
481
526
562
566
538
492
455
451
477
523
559
563
535
487
452
448
474
520
555
557
529
483
447
445
472
519
557
561
534
489
453
448
475
523
562
568
540
493
455
450
476
521
557
560
532
486
449
444
472
518
556
560
533
487
449
444
469
513
549
554
528
484
447
442
468
514
551
554
527
482
446
440
467
513
550
556
529
482
445
441
466
511
549
555
530
483
446
441
467
513
551
556
529
484
448
444
471
516
553
559
532
487
450
444
469
513
551
555
528
482
445
440
467
513
552
559
533
487
449
443
468
513
551
557
531
486
449
443
469
515
551
557
530
485
447
440
465
512
552
560
535
490
452
447
472
517
556
562
538
493
455
448
474
520
559
566
541
495
458
450
475
519
556
561
537
493
456
448
472
516
553
559
535
490
452
445
471
516
554
562
538
492
454
445
469
514
552
559
535
490
451
443
469
514
554
562
539
494
456
447
470
514
553
559
534
490
452
444
466
510
550
559
536
491
452
445
470
515
553
561
537
494
455
447
471
514
553
563
538
492
452
444
468
513
553
562
539
494
455
447
469
512
552
561
537
492
451
443
468
514
554
563
538
493
453
441
464
508
550
560
538
493
453
444
466
510
552
562
539
495
456
447
471
516
556
566
544
498
457
447
470
515
554
562
540
496
456
445
468
512
552
562
539
494
454
445
469
514
554
564
541
498
459
449
471
514
555
566
544
499
458
448
470
514
554
565
542
498
460
449
471
515
557
568
548
505
464
451
471
514
555
566
545
500
460
448
470
513
554
565
543
499
458
446
468
512
555
568
548
504
464
453
475
518
559
571
550
506
465
454
475
519
560
571
548
504
464
453
474
517
558
570
548
504
463
450
470
513
554
567
546
503
463
452
473
516
557
569
547
504
462
451
473
517
560
574
555
513
472
459
478
520
561
572
550
507
466
453
474
517
558
571
552
510
469
456
475
515
558
571
550
508
466
454
474
516
558
571
550
506
464
450
469
513
557
572
553
510
468
453
471
515
558
572
553
511
469
454
472
514
558
571
551
508
467
454
474
515
558
571
551
507
464
450
470
512
556
572
553
510
466
450
470
514
558
572
553
510
468
454
472
514
557
573
554
512
469
455
472
513
556
571
552
510
469
455
473
514
556
570
550
508
466
452
472
515
558
573
551
507
464
449
466
508
554
571
554
512
469
453
470
510
554
569
552
510
466
450
468
509
554
571
553
511
467
452
473
516
560
576
557
516
473
457
475
515
557
572
555
515
472
457
474
517
560
577
559
518
472
454
470
511
