85
453
454
479
518
544
543
516
477
451
453
479
520
547
545
520
478
450
450
476
516
542
540
515
476
450
452
478
517
542
539
513
475
448
449
474
513
537
534
508
468
444
446
472
512
538
535
508
470
446
447
473
510
535
531
504
464
440
443
468
506
531
529
502
462
439
442
468
506
532
528
500
461
437
440
466
503
527
523
495
455
430
434
460
497
520
515
488
449
426
429
456
494
517
513
485
446
421
426
454
494
519
513
483
444
420
424
451
489
511
506
479
440
417
420
446
484
506
501
474
435
409
414
442
481
502
497
469
431
408
413
440
478
499
492
464
426
402
404
429
466
488
482
454
417
396
400
427
463
484
479
450
412
391
397
424
462
485
479
450
412
390
396
425
465
487
481
454
416
394
400
429
467
487
480
451
414
393
400
429
466
486
480
450
411
390
397
428
467
487
480
453
415
394
401
431
469
489
483
455
418
398
405
433
471
489
480
451
413
392
399
428
466
486
478
448
408
387
394
423
462
483
475
447
410
391
398
428
467
487
479
449
412
393
399
427
465
484
475
446
409
389
397
426
463
481
472
442
405
386
394
423
459
478
470
441
406
388
397
427
464
482
473
443
406
387
396
426
464
483
474
445
408
388
396
427
465
485
476
446
410
393
402
433
471
490
481
449
411
393
402
434
472
490
480
449
413
396
407
438
475
492
483
454
418
401
410
440
477
494
483
453
417
402
414
445
482
498
487
454
418
402
412
442
478
495
486
456
421
404
414
444
481
497
486
454
417
398
408
438
475
490
478
445
409
393
404
437
473
489
478
447
411
395
406
438
474
488
476
444
408
393
406
439
475
491
478
446
410
394
405
437
473
489
477
445
410
395
406
438
475
491
478
445
408
392
403
435
471
486
474
443
407
392
404
437
474
489
478
445
408
393
405
438
474
488
476
443
407
392
404
436
472
487
475
443
407
394
408
443
481
497
484
450
414
399
412
445
480
494
481
450
416
403
418
450
484
497
483
449
412
399
414
447
484
498
484
451
417
405
420
454
490
503
490
457
422
408
420
454
489
501
486
453
418
406
420
454
490
503
491
458
424
413
427
461
496
509
495
462
427
414
428
463
498
511
496
462
427
415
431
465
500
512
496
462
427
417
432
468
503
516
500
466
432
420
435
469
504
516
500
467
433
421
436
470
506
519
503
469
434
424
441
476
510
521
504
469
434
424
439
474
507
517
500
465
432
421
436
470
504
515
498
463
430
421
437
472
505
515
498
463
429
419
436
472
507
518
503
470
436
426
442
477
509
519
502
468
436
426
441
475
508
517
501
466
433
423
439
475
508
517
498
463
430
421
439
476
510
519
502
467
434
425
443
479
511
518
499
463
432
425
443
479
512
521
503
467
433
425
443
479
511
518
499
464
431
424
443
479
512
520
500
464
430
423
442
479
511
519
501
466
435
427
445
482
516
523
503
467
436
430
449
485
517
525
507
471
437
430
449
486
518
524
503
467
436
431
451
488
520
527
508
471
440
434
451
488
519
526
504
467
435
429
449
486
518
526
507
471
439
434
455
493
525
532
513
477
446
440
459
495
525
531
512
476
445
440
461
497
531
537
518
482
451
445
466
503
535
540
519
480
450
445
466
503
534
539
520
484
454
451
472
509
541
547
526
488
457
453
474
513
545
549
528
489
457
453
475
513
543
547
527
490
459
457
479
517
546
549
528
492
463
460
481
519
547
550
527
488
458
455
477
516
548
552
530
492
463
460
482
521
552
555
534
495
466
462
483
520
551
554
533
496
466
463
484
522
552
555
533
495
466
464
486
525
555
558
536
499
471
468
490
528
556
558
535
496
467
466
489
527
556
558
536
498
470
468
491
530
560
561
538
499
469
466
488
527
556
558
536
497
468
466
489
528
557
559
537
499
470
468
491
529
560
564
542
502
473
472
495
532
560
559
534
496
470
470
496
535
562
562
539
501
474
474
497
537
566
566
542
504
475
473
496
535
564
564
539
501
474
474
498
536
563
562
536
498
472
473
499
541
570
570
544
503
475
475
499
538
567
567
543
505
478
479
504
542
569
568
543
505
479
479
504
542
570
569
545
508
481
482
507
547
575
573
549
510
484
486
511
550
576
574
549
510
483
485
510
549
576
575
550
512
486
488
513
552
577
575
550
513
487
490
518
556
582
580
553
514
488
490
516
555
580
577
550
509
481
484
511
551
576
575
551
514
487
488
514
552
578
575
549
510
485
488
514
552
577
575
549
510
485
488
514
552
578
576
549
510
486
488
514
553
578
574
546
505
482
487
515
554
578
574
546
507
484
489
518
558
583
580
553
513
487
489
515
553
579
576
549
511
487
491
518
556
579
576
549
510
485
489
516
554
578
574
547
509
488
493
520
558
582
577
550
510
486
491
519
558
580
576
550
512
489
495
522
560
583
579
552
513
489
494
521
559
581
576
547
508
486
490
518
557
580
574
545
507
484
489
517
555
578
573
545
506
485
492
521
559
580
573
544
504
483
488
516
555
578
573
545
507
487
492
519
555
576
570
541
503
483
489
518
556
576
568
539
499
478
484
512
550
571
563
534
495
474
481
509
548
567
559
529
489
467
472
501
540
559
551
521
483
462
468
495
532
552
543
513
475
456
464
493
531
550
541
509
471
451
460
490
528
548
541
512
475
455
462
490
528
548
540
509
472
452
461
490
528
546
536
504
465
447
457
486
524
544
534
503
466
446
454
484
522
541
532
500
463
443
451
481
519
538
528
497
460
441
449
479
517
535
525
495
459
441
451
481
517
536
527
499
463
446
455
485
524
543
536
505
469
451
461
492
530
549
540
508
471
454
464
494
532
548
537
504
467
449
461
493
531
549
538
506
471
455
468
501
540
556
545
513
476
460
470
503
542
560
550
518
481
466
478
510
547
563
552
521
483
467
478
509
548
565
554
523
484
468
480
511
548
565
553
521
484
467
477
508
544
559
547
513
476
460
473
507
545
562
550
517
480
466
478
510
547
560
546
514
479
464
476
509
545
560
549
516
479
463
474
506
545
561
549
517
481
468
481
513
550
564
549
515
479
464
476
509
546
561
548
515
480
466
479
512
548
563
551
517
481
467
480
513
549
562
549
516
481
468
483
518
554
569
555
522
488
475
487
519
553
568
557
526
492
480
494
530
568
583
571
539
506
495
510
545
582
595
581
550
517
505
521
556
591
604
590
557
523
511
527
561
597
609
597
564
530
519
533
566
602
616
601
567
532
519
532
565
600
612
597
561
527
514
528
561
596
608
595
562
527
516
531
565
600
613
600
567
532
520
535
570
605
617
603
568
532
519
533
566
601
613
597
561
527
516
532
567
601
610
593
559
524
513
530
566
601
611
595
559
524
513
529
565
599
610
592
556
521
511
528
564
598
607
590
552
517
506
523
558
592
603
586
549
515
505
523
558
592
601
584
548
512
501
519
554
587
595
578
542
506
496
514
549
583
591
573
537
503
494
511
546
580
588
571
534
499
490
507
543
576
587
570
536
503
493
510
546
579
588
573
538
505
497
515
551
584
591
575
540
508
499
517
553
584
592
574
539
507
498
516
554
588
596
577
540
507
499
517
552
584
592
575
538
505
497
516
552
583
589
571
536
503
496
514
551
582
588
567
530
498
492
509
546
577
582
563
526
493
486
505
540
569
576
558
523
491
486
505
540
569
572
552
515
483
477
497
534
564
568
548
510
478
471
488
524
555
562
543
504
473
466
484
520
550
555
533
494
462
456
475
511
540
543
522
484
452
447
467
502
533
535
514
476
444
439
458
494
524
529
508
471
441
437
457
493
523
527
506
468
438
434
455
493
523
527
506
470
440
436
457
495
528
533
512
475
446
442
464
503
533
537
517
479
448
444
465
504
534
538
517
481
454
451
471
506
535
538
518
481
452
449
469
505
534
536
514
477
449
447
469
507
537
540
516
478
450
448
470
507
536
537
514
476
447
445
466
502
529
531
508
472
444
443
465
503
532
534
510
474
447
445
467
504
533
534
512
475
449
449
473
512
541
541
517
478
449
448
471
509
539
540
517
480
451
449
473
513
542
542
519
481
454
452
475
512
539
539
517
479
452
451
475
513
538
535
511
473
446
445
469
508
537
538
515
477
450
449
473
512
540
540
515
475
447
447
472
510
538
538
515
477
449
451
477
516
544
543
520
481
455
456
479
517
543
541
517
479
453
455
481
519
545
545
519
481
456
457
479
514
538
537
512
474
448
449
473
510
536
535
509
469
443
443
467
505
533
532
507
469
442
442
467
504
528
524
497
458
433
435
460
498
523
519
493
455
429
430
453
490
515
512
487
449
424
425
449
487
512
509
484
446
421
422
448
486
511
508
482
443
417
419
445
482
507
504
479
441
417
419
444
483
507
503
476
437
412
415
441
479
504
500
475
437
413
415
442
481
506
501
475
437
413
416
444
483
505
500
474
437
415
419
446
485
509
504
476
437
415
419
445
483
506
501
476
439
417
421
446
484
507
503
476
437
415
420
448
487
510
505
479
442
420
426
454
493
517
512
484
445
422
427
454
492
516
510
482
446
425
431
458
496
519
512
484
447
425
431
459
499
522
516
486
448
426
430
457
495
517
510
483
444
423
429
458
496
518
511
482
445
422
429
457
496
518
512
484
447
425
432
461
499
520
513
485
450
431
437
465
502
524
516
487
449
430
438
467
505
526
520
490
453
433
440
468
507
529
523
494
455
434
439
468
506
526
519
490
452
433
441
471
509
529
520
491
455
436
444
474
512
534
527
498
460
440
449
480
519
540
533
504
466
448
457
487
525
543
535
504
465
448
459
490
527
545
538
508
472
454
464
494
531
551
542
512
475
458
468
499
537
555
547
517
480
463
472
501
537
555
545
515
478
461
471
502
540
557
547
517
480
464
476
507
545
563
554
524
486
469
479
509
547
565
556
525
487
469
478
509
547
565
555
523
486
469
479
510
546
564
553
521
483
466
476
507
544
560
551
522
486
469
479
510
548
565
556
525
488
470
481
512
548
565
555
523
485
469
483
517
554
569
556
524
487
474
486
518
555
571
559
527
