583
575
573
577
583
591
594
591
584
576
574
578
584
592
596
592
584
575
571
575
584
592
593
589
581
573
571
577
585
594
597
594
587
579
577
579
586
595
596
592
584
575
572
577
584
591
594
590
583
575
572
575
581
587
589
584
576
567
565
569
576
585
587
583
574
564
561
565
572
582
586
583
576
566
563
567
575
582
584
580
573
563
558
560
567
576
578
574
565
556
553
558
565
574
575
570
561
552
550
554
561
568
569
565
558
549
546
550
557
564
565
560
553
544
540
543
548
555
557
554
547
538
533
536
542
548
550
546
539
531
527
529
536
544
545
541
534
524
521
523
529
536
536
532
525
516
512
515
522
529
530
525
516
505
501
504
509
517
519
516
510
502
499
503
511
520
523
518
511
504
501
504
513
521
523
517
510
501
499
503
512
520
523
518
510
501
497
499
506
514
516
512
506
498
494
497
503
510
511
506
498
489
486
490
497
505
505
499
492
484
481
484
490
497
497
492
486
479
477
483
490
497
499
496
489
481
478
483
491
499
503
499
491
482
478
481
489
498
500
497
490
482
478
483
491
500
502
496
488
481
479
483
489
498
501
498
491
482
478
481
489
496
497
494
487
479
476
478
484
492
495
492
486
478
474
477
485
494
496
492
487
480
477
480
488
497
499
495
488
482
480
485
494
503
505
500
494
485
483
487
494
503
507
504
498
491
489
494
503
512
515
510
503
495
494
498
505
513
517
515
509
501
497
501
509
518
522
517
509
499
496
501
509
520
524
521
513
505
502
504
510
519
521
517
510
501
499
506
514
523
526
523
517
509
506
509
518
528
531
529
523
515
512
514
522
531
534
530
523
516
512
516
526
535
538
533
525
516
512
516
523
532
535
531
523
514
510
515
524
534
539
537
530
522
520
525
532
540
544
543
538
530
527
532
541
548
550
546
539
531
528
532
541
550
554
550
543
534
531
537
547
555
558
556
550
541
538
543
552
562
567
565
559
550
547
550
559
568
572
569
563
555
550
552
559
568
571
569
561
553
550
555
564
574
577
573
567
557
552
556
563
573
578
575
568
559
556
560
569
577
581
577
571
563
559
564
574
584
589
587
581
573
569
574
581
591
597
594
586
579
577
581
589
597
600
597
592
586
584
588
595
603
606
603
598
592
589
594
602
610
613
609
602
594
590
594
601
610
613
610
603
595
592
595
602
610
614
611
605
598
594
597
604
612
614
609
604
598
595
599
606
614
616
613
607
600
597
600
608
617
620
615
607
599
595
598
606
615
619
617
610
600
594
595
602
612
614
610
603
594
590
592
600
608
610
607
600
592
589
591
598
607
610
606
596
586
580
583
591
598
601
599
593
586
581
584
592
600
601
598
591
582
577
580
586
594
597
593
586
578
573
574
581
589
593
589
583
574
568
569
575
582
584
581
574
565
560
562
568
575
576
573
566
558
555
556
562
570
573
570
563
554
549
551
558
566
568
564
556
545
540
544
553
563
566
564
557
548
546
551
558
565
568
565
559
551
548
552
558
566
568
564
556
548
544
548
556
565
568
564
557
548
543
545
553
562
564
560
552
542
537
540
548
557
559
555
548
539
535
539
546
555
559
555
548
540
536
538
543
552
556
553
547
540
535
537
543
552
556
552
544
535
530
533
544
555
558
555
548
541
538
540
547
556
560
557
549
541
537
542
551
560
565
562
556
548
544
549
558
566
569
565
559
552
550
555
563
572
576
574
568
560
556
562
572
582
585
581
574
566
563
569
578
588
591
587
581
573
569
574
583
593
598
595
589
582
578
580
588
598
603
600
594
586
583
586
592
602
608
605
596
587
584
587
595
603
607
603
596
588
584
588
595
603
607
604
596
588
584
588
595
604
608
606
600
592
586
588
595
604
607
604
596
586
581
584
590
598
602
599
591
580
576
580
586
593
598
595
588
578
573
577
586
596
599
595
587
577
572
574
581
590
594
591
584
576
573
575
582
591
595
591
583
574
569
571
578
587
591
588
582
573
567
569
576
583
587
586
579
570
564
565
573
583
587
582
574
565
561
562
570
579
581
577
570
562
556
558
565
573
576
574
567
558
553
554
559
565
567
564
557
549
544
547
555
563
567
565
558
548
544
546
554
564
569
565
558
551
546
548
555
565
571
568
561
552
546
549
555
561
563
559
553
545
539
541
548
556
560
558
553
544
537
537
544
554
559
557
550
540
535
537
545
555
560
558
551
542
537
541
549
557
560
556
548
539
536
541
549
559
563
560
555
547
541
542
548
556
559
557
553
546
542
543
549
558
563
560
554
547
542
544
552
562
570
568
560
551
547
549
556
564
569
567
561
553
548
550
557
565
570
569
564
556
552
554
561
571
577
575
570
562
558
561
570
582
587
586
581
573
568
571
581
591
598
597
591
583
578
581
590
600
605
603
595
587
581
584
592
602
608
606
598
589
584
588
596
605
609
607
599
591
588
591
600
609
614
613
607
599
594
596
604
614
619
619
614
605
600
603
613
624
631
629
622
611
605
609
621
635
641
639
633
624
620
624
633
644
649
647
640
632
628
631
639
651
657
657
650
640
635
640
649
659
664
663
657
647
642
645
655
667
673
670
663
654
648
650
659
670
675
671
664
656
651
655
664
674
680
676
667
660
656
660
668
677
682
680
673
664
658
659
668
677
683
679
671
661
652
653
662
671
676
673
665
655
648
647
655
665
670
666
657
646
640
643
650
658
662
659
650
639
633
636
643
652
657
654
647
637
630
632
638
647
652
649
639
628
622
625
634
643
648
645
636
624
618
621
630
642
646
642
634
623
617
620
627
636
641
638
628
616
611
614
622
631
637
634
626
616
610
613
621
631
635
632
626
619
614
617
625
636
642
638
628
617
610
611
619
629
635
631
622
612
607
610
618
628
633
630
623
613
606
609
616
625
630
626
619
608
602
605
613
620
623
619
611
603
596
599
608
618
624
622
612
601
595
598
605
615
621
617
608
597
591
594
604
613
616
611
602
591
585
586
593
602
607
603
594
584
578
580
587
595
599
594
588
580
574
577
583
593
599
596
588
580
573
574
582
592
598
594
586
575
567
569
576
584
590
587
579
568
561
563
571
581
586
582
573
564
559
561
566
576
581
577
569
561
555
555
560
570
576
573
564
553
546
546
553
562
568
566
559
548
541
543
550
559
565
563
555
542
534
536
545
554
558
555
547
538
532
533
541
549
554
549
540
530
524
526
531
541
549
546
537
526
519
520
525
533
537
534
527
516
510
513
521
529
533
530
521
510
502
504
511
520
523
519
510
500
494
495
502
511
516
514
505
494
487
490
497
507
512
507
498
488
481
482
489
498
504
502
496
486
479
480
489
499
504
501
495
486
478
479
487
497
502
499
491
481
473
475
481
490
495
492
485
476
470
472
480
490
497
497
489
480
475
477
485
494
499
497
492
484
478
479
485
493
497
495
488
479
472
475
485
497
503
502
495
485
477
478
485
495
499
498
491
482
475
477
484
494
499
496
489
481
475
478
485
493
496
493
485
476
469
470
477
486
490
488
479
469
461
460
467
477
482
479
470
461
454
456
463
471
476
473
467
459
453
455
461
469
473
471
463
453
445
447
455
465
470
465
457
446
438
439
446
455
460
455
446
435
428
429
435
446
453
450
441
430
425
426
433
442
448
446
437
428
422
426
433
442
447
445
437
429
423
424
431
442
449
448
442
433
426
427
435
446
451
447
440
432
425
425
433
443
448
445
435
425
419
422
429
436
442
439
431
422
417
421
429
438
443
443
439
431
425
427
435
443
449
447
439
430
422
425
433
442
449
448
440
430
423
423
431
442
449
446
437
427
421
423
430
439
444
441
433
425
418
420
428
438
444
440
432
423
417
419
426
436
441
439
431
421
415
416
425
434
440
437
428
415
406
407
414
424
430
425
416
404
396
397
402
411
416
413
405
396
390
391
397
406
411
407
400
391
384
385
392
399
403
401
395
385
376
377
385
396
403
401
394
385
378
378
385
395
401
399
392
382
376
379
386
395
401
398
390
379
370
372
380
390
396
392
382
371
362
363
370
380
386
384
377
368
360
360
367
377
382
378
370
361
354
354
362
372
378
375
367
356
348
349
355
365
373
372
366
357
349
351
360
369
375
371
363
353
347
349
357
368
374
372
365
357
350
353
362
371
377
375
368
358
351
352
361
371
378
378
371
361
354
358
366
376
382
382
375
365
358
360
369
380
386
385
378
370
363
363
371
382
389
388
382
373
367
369
379
390
396
394
387
377
371
373
382
392
400
400
393
382
375
378
388
398
404
403
396
387
380
384
394
406
412
410
403
396
389
391
399
411
418
415
407
397
392
395
403
414
423
422
414
405
399
402
412
423
431
430
426
418
412
415
425
436
443
441
434
426
419
420
428
439
448
447
441
433
428
429
438
449
457
457
450
441
435
439
447
459
468
467
461
452
446
450
459
471
480
480
472
462
455
457
464
475
483
482
473
461
453
456
464
476
485
487
480
470
462
463
472
483
489
486
479
469
462
462
468
477
485
485
478
467
459
461
468
479
487
485
478
469
462
464
474
484
490
488
480
471
464
464
470
481
488
487
480
471
463
463
471
481
488
486
479
471
463
465
474
485
492
490
482
472
463
464
473
483
489
487
481
471
464
465
473
484
492
490
481
472
465
469
479
490
497
496
489
481
475
476
484
495
502
502
494
485
478
481
489
502
512
513
506
497
490
492
500
513
521
521
515
506
501
505
514
525
533
533
525
515
507
509
517
529
537
537
532
522
514
514
522
532
540
539
532
523
516
518
528
540
547
547
540
531
524
527
534
545
554
554
546
537
531
535
544
553
559
558
550
538
529
531
539
550
557
556
550
542
536
538
546
557
564
563
557
547
541
543
552
562
568
568
561
552
546
548
556
566
574
572
566
559
553
555
563
573
578
577
571
562
556
559
569
580
587
587
580
571
564
565
573
583
591
591
586
578
571
572
579
589
596
595
589
580
574
576
583
592
599
599
591
581
574
578
587
598
606
604
598
589
580
581
589
600
606
604
598
589
581
581
588
599
606
605
598
588
580
581
588
598
606
604
598
588
580
580
588
598
605
603
595
584
576
578
585
595
601
599
592
582
574
574
580
590
596
594
587
580
573
576
583
592
599
597
590
581
574
576
584
595
603
601
594
586
578
578
586
596
603
601
594
584
576
577
583
592
598
596
588
578
569
569
575
585
594
593
586
576
568
569
576
586
594
592
586
577
570
571
579
588
595
594
588
577
569
571
580
591
598
595
589
581
574
576
583
593
600
600
594
585
577
578
585
596
604
603
596
588
579
580
587
597
605
605
598
588
579
580
588
598
606
605
599
590
584
586
594
604
611
610
603
595
588
590
597
607
614
613
606
597
590
591
600
611
620
618
611
603
597
596
604
614
623
623
617
608
601
601
607
616
624
625
620
611
604
605
612
623
631
631
625
617
610
612
621
631
637
634
627
618
611
611
618
629
636
634
627
618
611
614
622
630
637
634
627
619
614
615
622
632
641
642
635
624
613
612
619
629
637
636
630
620
612
613
620
631
638
638
630
620
613
613
618
627
636
635
627
617
608
607
614
624
631
630
622
610
602
602
609
619
625
623
616
605
596
596
603
614
622
620
612
601
591
590
598
609
618
616
608
598
590
590
597
606
612
611
604
593
585
586
593
602
608
606
598
588
579
579
585
594
601
598
591
580
573
573
579
587
592
589
581
572
565
564
569
579
587
586
578
567
559
558
564
574
584
583
575
564
556
559
565
574
581
581
575
565
558
559
567
577
584
582
576
568
558
557
565
574
581
581
574
564
554
553
559
568
577
578
571
560
550
550
557
567
576
576
569
558
549
549
554
564
570
567
559
548
538
538
545
557
565
566
560
551
544
544
550
559
567
565
556
544
534
533
539
549
557
557
549
539
531
530
537
546
553
553
546
536
527
528
534
543
550
548
540
529
519
519
526
536
542
541
535
526
518
517
523
532
539
537
530
521
513
512
519
528
537
536
529
519
511
512
519
529
536
73
380
379
377
377
378
382
384
382
381
381
381
382
384
386
387
387
388
387
385
384
384
386
387
387
387
387
388
389
392
396
397
396
395
391
390
392
393
397
397
396
396
395
395
398
401
404
403
401
401
400
400
401
403
405
406
406
406
403
402
404
406
408
408
405
403
402
403
405
407
410
412
412
412
411
411
413
415
417
417
416
415
412
410
411
413
416
416
416
417
416
416
416
416
419
420
421
421
419
417
418
421
426
427
428
426
422
420
421
422
425
425
423
423
421
420
421
424
428
429
429
427
426
426
427
429
432
433
432
431
426
425
427
429
432
433
431
430
428
428
429
430
433
434
435
435
431
429
431
434
438
438
437
434
429
426
427
430
433
434
434
433
431
429
430
432
434
435
433
432
429
426
426
427
430
432
431
431
429
428
429
430
431
431
430
430
428
427
429
431
434
436
436
435
432
430
430
430
432
432
430
429
425
423
424
426
429
429
428
428
426
424
425
428
431
433
432
429
425
425
425
426
428
427
426
425
422
422
424
426
429
428
426
425
422
420
420
422
424
425
424
420
417
418
419
419
422
422
420
418
416
416
418
421
422
421
420
419
417
417
418
420
422
421
421
421
419
418
418
418
420
420
420
420
416
415
416
418
420
419
419
418
415
414
416
417
421
420
419
419
417
417
418
419
422
423
422
421
418
417
418
420
422
422
422
421
420
420
421
423
426
426
425
426
424
423
424
424
426
425
424
423
421
419
421
423
425
424
422
420
417
417
421
423
427
428
427
426
424
422
424
426
430
429
428
429
429
428
428
430
434
435
432
431
428
426
427
427
429
428
427
426
424
423
423
423
426
427
428
426
423
421
422
423
427
428
427
426
422
421
422
424
424
424
424
423
420
419
421
424
428
429
429
430
429
428
429
431
432
431
430
429
426
425
427
430
432
432
432
432
431
430
431
433
437
438
438
438
436
436
439
442
445
445
445
443
440
442
444
447
449
449
448
448
446
444
444
445
447
447
446
446
445
445
446
448
451
452
451
451
450
447
447
448
452
454
454
453
452
452
454
455
458
459
459
458
455
454
455
458
461
460
459
458
456
456
457
457
460
460
458
455
452
452
454
456
460
461
461
459
455
453
454
455
456
456
455
455
453
452
454
457
459
459
458
457
453
452
454
456
459
459
457
455
453
453
455
455
457
456
453
450
448
449
451
452
454
453
451
451
449
447
447
448
452
453
451
451
449
448
449
451
453
453
452
451
449
449
450
451
453
455
454
453
451
449
451
453
454
453
452
451
448
447
449
450
453
454
453
452
451
450
450
451
453
452
450
448
445
444
445
446
447
446
446
445
444
445
447
448
450
450
447
447
446
446
446
446
448
448
447
446
444
445
446
446
450
449
446
445
442
442
444
446
450
453
452
450
448
448
449
450
452
452
451
449
446
446
448
450
453
454
453
453
451
451
453
456
459
458
457
456
453
453
455
457
460
458
456
454
453
452
453
455
456
456
455
455
454
454
456
457
460
461
460
460
456
455
456
458
461
462
461
459
456
454
454
456
459
459
459
459
458
458
458
460
463
462
461
460
458
458
461
464
466
465
464
463
461
461
463
465
467
466
464
463
460
460
461
463
466
466
466
466
462
459
459
461
464
465
464
464
462
461
463
465
469
468
465
464
463
465
466
468
472
474
473
473
469
467
467
468
470
472
471
469
465
463
464
466
470
471
471
470
465
464
466
468
470
470
469
468
466
467
469
471
473
472
471
470
469
470
471
471
473
473
472
470
466
465
467
470
474
475
474
472
469
468
470
474
478
479
478
477
475
476
478
479
482
482
482
482
481
481
484
488
491
490
487
486
483
483
484
486
490
492
491
489
487
487
488
490
493
493
491
490
489
489
492
494
495
495
493
491
487
486
487
489
492
492
491
489
486
483
483
485
488
488
488
487
485
485
486
487
490
490
489
488
486
485
487
491
493
492
490
486
482
481
483
486
489
490
490
489
485
485
488
490
493
494
492
490
487
488
489
492
495
495
494
492
488
486
488
492
496
496
494
492
491
491
492
495
497
496
494
492
489
489
490
492
495
497
496
496
494
496
498
501
504
504
500
497
493
492
493
495
497
498
497
495
490
488
488
489
493
494
493
493
491
492
495
498
502
503
503
502
498
497
497
498
501
502
503
503
501
500
501
503
507
508
506
504
502
501
504
507
512
514
512
509
506
505
508
512
515
515
515
514
510
510
513
516
520
519
518
517
515
515
516
519
522
522
520
518
515
514
516
519
524
526
524
522
519
520
522
525
528
530
531
530
526
526
528
533
537
537
537
535
531
530
532
534
537
538
537
534
530
529
531
535
540
542
542
540
536
536
538
540
543
543
542
542
539
537
538
541
546
547
546
543
540
540
542
544
548
548
547
546
542
542
544
546
548
548
547
546
543
544
546
548
552
553
553
553
551
551
552
555
560
560
558
557
554
554
556
560
565
565
563
562
560
561
562
564
567
568
566
563
561
562
563
565
568
568
566
565
564
565
567
568
570
571
570
568
566
567
569
570
573
573
572
570
567
567
569
573
576
576
572
568
565
567
569
573
577
576
574
573
568
566
568
572
576
577
576
573
569
569
571
577
582
583
582
580
578
577
577
580
584
586
585
581
576
575
578
581
585
584
582
580
576
575
577
580
584
584
581
579
576
575
578
579
582
583
582
581
578
577
578
580
583
583
582
579
574
572
572
574
577
577
575
575
573
574
576
580
583
584
581
578
575
576
579
583
586
586
584
583
582
580
581
583
587
590
589
588
586
586
589
592
595
595
593
591
587
586
588
591
595
596
595
593
590
589
591
595
598
597
595
592
588
587
588
589
590
590
589
586
583
583
584
587
590
588
586
585
583
583
584
587
591
591
590
588
584
583
584
587
591
593
592
590
587
588
592
596
600
599
597
594
591
592
594
598
601
601
599
598
598
601
605
607
609
608
606
604
601
599
601
605
609
610
608
605
600
601
602
604
606
605
604
602
598
598
599
603
607
607
604
601
597
596
597
598
600
601
601
600
598
598
600
602
605
604
601
599
596
596
598
600
602
601
598
596
593
592
594
597
601
601
600
596
591
590
591
595
599
600
597
595
593
593
593
594
597
597
596
593
591
592
594
595
597
596
593
592
588
588
591
593
598
599
597
596
594
594
595
596
600
600
600
598
595
594
593
595
598
599
597
594
589
586
585
587
590
590
586
581
574
569
565
561
559
554
547
539
526
512
502
496
493
486
476
461
439
419
403
392
386
378
366
345
317
288
264
247
237
226
209
184
149
114
83
62
48
33
19
11
7
4
3
2
2
1
1
1
1
1
1
1
1
1
1
1
1
1
1
1
1
1
1
1
1
1
1
1
1
1
1
1
1
1
1
1
1
1
1
1
1
1
1
1
1
1
1
1
1
1
1
1
1
1
1
1
1
1
1
1
1
1
1
1
1
1
1
1
0
1
1
1
1
1
1
1
1
0
1
1
1
1
1
1
1
1
1
1
1
1
1
1
1
1
1
1
1
1
0
1
1
0
1
1
1
1
1
1
1
1
1
1
1
0
1
1
1
1
1
1
1
0
1
1
1
1
0
1
1
1
1
1
1
1
0
1
1
1
1
1
1
1
1
1
1
0
1
1
1
1
1
1
1
1
1
0
1
0
1
1
0
0
1
1
1
1
1
1
1
0
1
0
1
1
1
1
1
0
1
1
1
1
1
1
0
1
1
1
1
1
1
0
0
0
1
0
1
0
1
1
1
1
1
0
1
1
1
1
1
1
1
1
1
1
1
1
1
1
0
1
1
1
1
1
1
0
1
1
0
1
0
1
1
1
1
1
1
1
1
1
1
1
1
1
1
0
0
1
1
1
1
0
1
1
1
1
0
1
0
1
1
0
1
1
1
1
1
0
1
1
0
1
1
1
1
0
1
1
1
1
1
0
1
1
0
1
0
1
0
1
1
1
1
1
1
1
1
1
1
1
1
1
1
1
1
1
1
1
0
1
1
1
1
0
1
1
1
1
1
0
1
1
1
1
1
1
1
1
1
1
1
0
1
1
1
1
1
1
1
0
1
1
1
1
1
1
1
0
1
1
1
1
1
1
1
1
0
1
1
1
1
1
1
1
1
1
1
1
1
1
1
0
1
1
1
1
1
1
0
0
1
1
1
1
1
1
1
0
1
1
1
0
1
1
1
1
1
1
1
1
1
1
1
1
1
1
1
1
1
1
1
1
1
1
1
1
1
1
1
1
1
1
1
1
1
1
1
1
1
1
1
1
1
1
1
1
1
1
1
1
1
1
1
1
1
1
1
1
1
1
1
1
1
1
1
1
1
1
1
1
1
3
4
5
6
8
9
10
12
13
14
15
16
18
19
20
21
22
24
25
26
27
29
30
31
32
33
34
36
37
38
39
40
41
43
44
45
46
47
48
49
50
52
53
54
55
56
57
58
60
61
62
63
64
65
66
67
68
69
70
72
73
74
75
76
77
78
79
80
81
82
83
84
85
86
87
88
89
90
92
93
94
95
96
97
98
99
100
101
102
103
104
105
106
107
108
109
110
111
112
113
114
115
116
116
117
118
119
120
121
122
123
124
125
126
127
128
129
130
131
132
133
134
135
136
136
137
138
139
140
141
142
143
144
145
145
146
147
148
149
150
151
152
153
153
154
155
156
157
158
159
159
160
161
162
163
164
164
165
166
167
168
169
169
170
171
172
173
174
174
175
176
177
178
178
179
180
181
182
182
183
184
185
185
186
187
188
189
189
190
191
192
192
193
194
195
196
196
197
198
199
199
200
201
202
202
203
204
205
206
206
207
208
208
209
210
210
211
212
213
213
214
215
216
216
217
218
218
219
220
221
221
222
223
223
224
225
225
226
227
227
228
229
230
230
231
232
232
233
234
234
235
236
236
237
238
238
239
239
240
241
241
242
243
243
244
245
245
246
246
247
248
248
249
250
250
251
252
252
253
253
254
255
256
256
257
257
258
259
259
260
260
261
262
262
263
263
264
265
265
266
266
267
268
268
269
269
270
271
271
272
272
273
273
274
274
275
275
276
277
277
278
278
279
279
280
281
281
282
282
283
283
284
284
285
286
286
287
287
288
288
289
289
290
290
291
291
292
292
293
293
294
294
295
295
296
296
297
297
298
298
299
300
300
301
301
302
302
302
303
303
304
304
305
305
306
306
307
307
308
308
309
309
310
310
311
311
312
312
313
313
313
314
314
315
315
316
316
317
317
318
318
319
319
319
320
320
321
321
322
322
323
323
323
324
324
325
325
326
326
327
327
327
328
328
329
329
329
330
330
331
331
332
332
333
333
333
334
334
334
335
335
336
336
337
337
337
338
338
339
339
339
340
340
341
341
341
342
342
342
343
343
344
344
344
345
345
346
346
346
347
347
348
348
348
349
349
349
350
350
351
351
351
352
352
352
353
353
354
354
354
355
355
355
356
356
356
357
357
358
358
358
358
359
359
360
360
360
361
361
361
362
362
362
363
363
363
364
364
364
365
365
366
366
366
366
367
367
367
368
368
368
369
369
369
370
370
370
371
371
371
372
372
372
373
373
373
374
374
374
375
375
375
376
376
376
376
377
377
377
378
378
378
379
379
379
380
380
380
381
381
381
381
382
382
382
383
383
383
383
384
384
384
385
385
385
386
386
386
386
387
387
387
388
388
388
388
389
389
389
390
390
390
390
391
391
391
391
392
392
392
393
393
393
393
394
394
394
394
395
395
395
395
396
396
396
397
397
397
397
398
398
398
398
398
399
399
399
399
400
400
400
401
401
401
401
401
402
402
402
403
403
403
403
403
404
404
404
404
405
405
405
405
406
406
406
406
407
407
407
407
407
408
408
408
408
409
409
409
409
409
410
410
410
420
983
1023
1023
775
595
500
453
429
417
411
408
406
405
405
405
405
405
405
405
405
406
740
1023
1023
1023
1023
1023
1023
1023
1023
1023
1023
1023
1023
1023
1023
1023
1023
1023
1023
1023
1023
1023
1023
1023
1023
1023
1023
1023
1023
1023
1023
1023
1023
1023
1023
1023
1023
1023
1023
1023
1023
1023
1023
1023
1023
1023
862
579
317
170
93
51
29
17
10
6
4
3
2
2
2
1
1
1
1
1
1
1
1
1
1
1
1
1
48
207
398
558
657
676
636
558
451
367
284
198
110
59
32
17
10
6
4
3
8
99
277
496
736
979
1023
1023
1023
1023
1023
1023
1023
1023
1023
1023
1023
1023
1023
1023
1023
1023
1023
1023
1023
1023
1023
1023
1023
1023
1023
1023
1023
1023
1023
1023
1023
1023
1023
1023
1023
1023
1023
1023
1023
1023
1023
1023
1023
1023
1023
1023
1023
1023
1023
1023
1023
1023
1023
1023
1023
691
366
196
107
59
33
19
11
7
5
3
2
2
2
1
1
1
1
1
1
1
1
1
1
1
1
1
1
1
1
1
1
1
1
1
1
1
1
117
380
693
997
1023
1023
1023
1023
1023
1023
1023
1023
1023
1023
1023
1023
1023
1023
1023
1023
1023
1023
1023
1023
1023
1023
1023
1023
1023
1023
1023
1023
1023
1023
1023
1023
1023
1023
1023
1023
857
578
322
173
94
52
29
17
10
6
4
3
2
2
2
1
1
1
1
1
1
1
1
1
1
1
1
1
1
1
1
49
285
600
936
1023
1023
1023
1023
1023
1023
1023
1023
1023
1023
1023
1023
1023
1023
1023
1023
1023
1023
1023
1023
1023
1023
1023
1023
1023
1023
1023
1023
1023
1023
1023
1023
1023
1023
1023
1023
1023
1023
1023
1023
1023
1023
1023
1023
1023
1023
1023
1023
1023
1023
1023
1023
1023
1023
1023
1023
1023
1023
1023
1023
1023
1023
1023
925
721
500
281
151
83
46
26
15
9
6
4
3
2
2
2
1
1
1
1
1
1
1
7
88
208
350
508
685
833
964
1023
1023
1023
1023
1023
1023
1023
1023
1008
860
679
432
227
122
66
37
21
12
7
5
3
2
2
2
1
1
1
1
1
1
1
1
1
1
1
1
1
1
1
1
1
1
1
1
1
1
1
1
1
1
1
1
1
1
1
1
1
1
1
1
1
1
1
1
1
1
1
1
1
1
1
1
1
1
57
242
468
711
936
1023
1023
1023
1023
1023
1023
1023
1023
1023
1023
1023
1023
1023
1023
1023
1023
1023
1023
1023
1023
1023
1023
1023
1023
1023
1023
1023
1023
1023
1023
1023
1023
1023
1023
1023
1023
1023
1023
1023
1023
1023
1023
1023
1023
1023
1023
1023
1023
1023
1023
1023
1023
1023
1023
1023
1023
1023
1023
1023
1023
1023
1023
1023
1023
1023
1023
1023
1023
1023
1023
1023
1023
1023
1023
1023
1023
1023
1023
1023
1023
1023
1023
1023
1023
1023
1023
1023
1023
1023
1023
1023
1023
1023
1023
1023
1023
1023
1023
1023
1023
1023
1023
1023
1023
1023
1023
1023
1023
1023
1023
1023
1023
1023
1023
1023
1023
1023
1023
1023
1023
1023
1023
1023
1023
1023
1023
1023
1023
1023
1023
1023
1023
1023
1023
1023
1023
1023
1023
1023
1023
1023
1023
1023
1023
1023
1023
1023
1023
1023
1023
1023
1023
1023
1023
1023
1023
1023
1023
1023
1023
1023
1023
1023
1023
1023
1023
1023
1023
1023
1023
1023
1023
1023
1010
991
979
963
951
956
942
912
881
861
852
848
859
866
856
836
806
783
774
765
759
758
745
729
710
697
701
706
703
695
687
663
637
632
626
616
599
581
563
545
522
504
490
475
461
460
463
449
422
402
396
408
401
388
375
359
351
349
368
413
466
527
589
630
634
607
560
506
437
350
270
207
147
80
45
26
16
19
30
30
30
39
45
36
26
24
31
31
27
19
23
32
28
17
10
6
4
2
2
3
2
2
1
1
1
1
1
1
1
1
1
1
1
1
1
1
1
1
1
1
1
1
1
1
1
1
1
1
1
1
1
1
1
1
1
1
1
1
1
1
1
1
1
1
1
1
1
1
1
1
1
1
1
1
1
1
1
0
1
1
1
0
1
1
1
1
1
1
1
1
1
1
1
1
1
1
1
0
1
1
0
1
1
1
1
1
1
1
1
1
1
1
1
1
1
1
1
1
1
1
1
1
1
1
1
1
1
1
1
1
1
1
1
1
1
1
1
1
1
1
1
1
1
1
1
0
1
0
1
1
1
1
1
1
1
1
1
1
1
1
1
1
1
0
1
1
1
1
1
1
0
0
0
1
1
1
1
1
0
0
1
1
1
1
1
1
0
1
1
1
1
1
1
1
0
1
1
1
1
0
1
1
1
0
0
0
1
1
1
1
0
1
0
0
1
1
1
1
1
1
1
0
0
1
1
1
1
1
1
0
1
0
1
1
0
0
1
1
1
1
1
1
1
1
1
1
1
1
1
1
1
1
1
0
1
1
1
0
1
0
1
0
1
1
1
1
1
1
0
1
0
0
0
1
1
1
1
1
0
1
1
1
0
1
1
1
1
1
1
1
1
1
1
1
1
1
1
1
1
1
1
1
1
1
1
1
1
1
1
1
1
1
1
1
1
1
1
1
5
5
3
2
1
1
1
1
1
1
1
1
1
1
1
1
1
1
1
1
1
1
1
1
1
4
29
85
147
211
281
321
338
344
327
286
222
147
78
41
22
12
7
4
2
2
1
1
1
1
1
1
1
1
1
1
1
1
1
1
1
2
6
6
4
2
1
1
8
23
31
28
19
17
10
6
20
33
43
41
41
38
33
26
27
47
63
60
48
40
42
54
70
91
111
112
92
79
76
78
86
97
122
139
146
137
126
122
126
140
163
161
153
144
157
165
170
178
181
183
181
176
171
172
180
186
196
197
203
208
211
223
232
232
237
238
228
216
221
237
243
233
220
202
202
216
215
195
181
192
210
194
169
163
161
144
130
124
114
114
107
104
101
103
98
97
99
89
84
86
83
67
67
69
79
91
93
81
70
78
85
91
105
125
127
115
105
110
128
141
152
156
152
160
166
159
151
158
176
196
202
209
228
237
243
253
266
268
263
263
266
262
243
245
260
266
236
214
241
291
298
247
203
208
252
277
297
328
377
381
337
301
293
312
327
365
368
414
445
483
528
502
415
315
222
169
94
50
27
15
8
5
3
2
2
1
1
1
1
1
1
1
1
1
1
1
1
1
1
1
85
259
129
65
34
18
9
5
23
148
176
144
138
161
174
156
99
50
26
14
7
4
3
3
128
365
613
865
1023
1023
1023
1023
1023
1023
1023
1023
1023
1023
1023
1023
1023
1023
1023
1023
1023
1023
1023
1023
1023
1023
1023
1023
1023
1023
1023
1023
1023
1023
1023
1023
1023
1023
1023
974
750
535
349
200
109
60
33
19
11
7
5
3
2
2
2
1
1
1
1
1
1
1
1
1
1
1
1
1
1
1
1
1
1
1
1
1
1
1
1
1
1
1
1
1
1
1
1
1
1
1
1
1
1
1
1
1
1
1
1
1
1
1
1
1
1
1
1
1
1
1
1
1
1
1
1
1
1
1
1
1
1
1
1
1
1
1
1
1
0
1
1
1
1
0
1
1
1
1
1
1
0
1
1
1
1
1
1
0
1
1
1
1
1
1
1
1
1
1
1
1
1
50
298
689
1023
1023
1023
1023
1023
1023
1023
1023
1023
1023
1023
1023
1023
1023
1023
1023
1023
1023
1023
1023
1023
1023
1023
1023
1023
1023
1023
1023
1023
1023
1023
1023
1023
1023
1023
1023
1023
1023
1023
1023
1023
1023
1023
1023
1023
1023
1023
1023
1023
1023
1023
1023
1023
1023
1023
1023
1023
1023
1023
1023
1023
1023
1023
1023
1023
1023
1023
1023
1023
1023
1023
1023
1023
1023
1023
1023
1023
1023
1023
1023
776
412
221
120
66
37
190
826
1023
1023
1023
1023
1023
1023
1023
1023
1023
1023
1023
1023
1023
1023
1023
1023
1023
1023
1023
1023
1023
1023
1023
1023
1023
1023
1023
1023
1023
1023
1023
1023
1023
1023
1023
1023
1023
1023
1023
1023
1023
1023
1023
1023
1023
1023
1023
1023
1023
1023
1023
1023
1023
1023
1023
1023
1023
1023
1023
1023
1023
906
772
580
350
188
102
57
32
18
11
7
4
3
2
2
2
1
1
1
1
1
1
1
1
1
1
1
1
1
1
1
1
1
1
1
1
1
1
1
1
1
1
1
1
1
1
1
1
1
1
1
1
1
1
1
1
1
1
1
1
1
1
1
1
1
1
1
1
1
1
0
1
1
1
1
1
1
1
1
1
1
1
1
1
1
1
1
1
1
1
1
0
1
1
1
1
1
1
1
1
1
1
1
1
1
1
0
1
1
1
1
1
1
1
1
1
1
1
1
1
1
1
1
1
1
1
1
1
1
1
1
1
1
1
1
1
1
1
1
1
1
1
1
1
1
1
1
1
1
1
1
1
1
1
1
0
1
1
1
1
1
1
1
1
1
1
1
1
1
1
0
1
1
1
1
1
1
1
1
1
1
1
1
1
1
1
6
63
120
132
96
51
28
56
132
217
276
287
249
199
173
198
267
345
398
402
358
301
267
279
336
403
443
435
384
322
283
289
337
393
423
404
340
270
227
235
286
344
380
376
341
305
291
306
342
377
389
371
332
294
275
285
314
342
350
333
298
268
256
271
303
336
349
335
305
276
266
281
317
349
359
338
288
228
187
