1
5
95
174
165
107
80
159
350
563
709
764
738
678
667
769
960
1023
1023
1023
1023
1023
1023
1023
1023
1023
1023
1023
1023
1023
1023
1023
1023
1023
1023
1023
1023
1023
1023
1023
1023
1023
1023
1023
1023
1023
1023
1023
1023
1023
1023
1023
1023
1023
1023
1023
1023
1023
1023
1023
1023
1023
1023
1023
1023
1023
1023
1023
1023
1023
874
704
597
519
423
287
156
85
47
27
16
25
106
164
149
93
57
90
205
360
499
574
567
522
503
561
694
860
1005
1023
1023
1023
1004
1023
1023
1023
1023
1023
1023
1023
1023
1023
1023
1023
1023
1023
1023
1023
1023
1023
1023
1023
1023
1023
1023
1023
1023
1023
1023
1023
1023
1023
1023
1023
1023
1023
1023
1023
1023
1023
1023
1023
1023
1023
1023
1023
1023
1023
1023
1023
1023
1023
1023
1023
1023
672
359
194
106
59
48
204
416
558
592
551
498
490
548
646
742
803
814
804
812
872
986
1023
1023
1023
1023
1023
1023
1023
1023
1023
1023
1023
1023
1023
1023
1023
1023
1023
1023
1023
1023
1023
1023
1023
1023
1023
1023
1023
1023
1023
1023
1023
1023
1023
1023
1023
1023
1023
1023
1023
1023
1023
1023
1023
1023
1023
951
913
921
943
943
891
796
684
590
539
530
534
512
444
328
193
105
58
33
19
11
7
5
3
2
2
2
1
1
1
1
1
1
1
1
1
1
1
1
1
1
1
1
1
1
1
1
1
1
1
1
1
1
1
1
1
1
1
1
1
1
1
1
1
1
1
1
1
1
1
1
1
1
1
1
1
1
1
1
1
1
1
1
1
1
1
1
1
1
1
1
1
1
1
1
1
1
1
1
1
1
1
1
0
1
1
1
1
1
1
1
1
1
1
1
1
1
1
1
1
1
1
1
0
1
1
1
1
1
1
1
1
1
1
1
1
1
1
1
1
1
1
1
1
1
1
1
1
1
1
1
1
1
1
1
1
1
1
1
1
1
1
1
1
1
1
1
1
1
1
1
1
1
1
1
0
1
1
1
1
1
0
1
0
1
1
31
96
136
128
85
50
60
132
256
402
541
646
718
781
855
948
1023
1023
1023
1023
1023
973
906
878
884
899
892
852
789
733
711
738
805
879
940
977
1000
1023
1023
1023
1023
1023
1023
1023
1023
1023
1023
1023
1023
1023
1023
1023
1023
1023
1023
1023
1023
1023
1023
1023
1023
1023
1023
1023
1023
1023
1023
1023
1023
1023
1023
1023
1023
1023
1023
1023
1023
1023
1023
1023
1023
1023
1023
1023
903
480
257
140
77
43
25
398
1022
1023
1023
1023
1023
1023
1023
1023
1023
1023
1023
1023
1023
1023
1023
918
486
260
142
78
44
25
14
9
6
4
3
2
2
2
1
1
1
1
1
1
1
1
1
1
1
1
1
1
1
1
1
1
1
1
1
1
1
1
1
1
1
1
1
1
1
1
1
1
1
1
1
1
1
1
1
1
1
1
1
1
1
1
1
1
1
1
1
1
1
1
1
1
1
0
1
1
1
1
1
1
1
1
1
1
1
1
1
1
1
1
1
1
1
1
1
1
1
0
1
1
1
1
1
1
1
1
1
0
1
1
1
1
1
1
1
1
1
1
1
1
1
1
1
1
1
1
1
1
1
1
1
1
1
1
1
1
1
0
1
1
1
2
86
238
407
585
768
946
1023
1023
1023
1023
1023
1023
1023
1023
1023
1023
1023
1023
1023
1023
1023
1023
1023
1023
1023
1023
1023
1023
1023
1023
1023
1023
1023
1023
1023
1023
1023
1023
1023
1023
1023
1023
1023
1023
1023
1023
1023
1023
1023
1023
1023
1023
1023
1023
1023
1023
1023
1023
1023
1023
1023
1023
1023
1023
1023
1023
1023
1023
1023
1023
1023
1023
1023
1023
1023
1023
1023
1023
1023
1023
1023
1023
1023
1023
1023
1023
1023
1023
1023
1023
1023
1023
1023
1023
1023
1023
1023
1023
1023
1023
1023
1023
1023
1023
1023
1023
1023
1023
1023
1023
1023
1023
1023
1023
1023
1023
1023
1023
1023
1023
1023
1023
1023
1023
1023
1023
1023
1023
1023
1023
1023
1023
1023
1023
1023
1023
1023
1023
1023
1023
1023
1023
1023
1023
1023
1023
1023
1023
1023
1023
1023
1023
1023
1023
1023
1023
1023
1023
1023
1023
1023
1023
1023
1023
1023
1023
1023
1023
1023
1023
1023
1023
1023
1023
1023
1023
1023
1023
1023
1023
1023
1023
1023
1023
1023
1023
1023
1023
1023
1023
1023
1023
1023
1023
1023
1023
1023
1023
1023
1023
1023
1023
1023
1023
1023
1023
1023
1023
1023
1023
1023
1023
1023
1023
1023
1023
1023
1023
1023
1023
1023
1023
1023
1023
1023
1023
1023
1023
1023
1023
1023
1023
1023
1023
1023
1023
1023
1023
1023
1023
1023
1023
1023
1023
1023
1023
1023
1023
1023
1023
1023
1023
1023
1023
1023
1023
1023
1023
1023
1023
1023
1023
1023
1023
1023
1023
1023
1023
1023
1023
1023
1023
1023
1023
1023
1023
1023
1023
1023
1023
1023
1023
1023
1023
1023
1023
1023
1023
1023
1023
1023
1023
1023
1023
1023
1023
1023
1023
1023
1023
1023
1023
1023
1023
1023
1023
1023
1023
1023
1023
1023
1023
1023
1023
1023
1023
1023
1023
1023
1023
1023
1023
1023
1023
1023
1023
1023
1023
1023
1023
1023
1023
1023
1023
1023
1023
1023
1023
1023
1023
1023
1023
1023
1023
1023
1023
1023
1023
1023
1023
1023
1023
1023
1023
1023
1023
1023
1023
1023
1023
1023
1023
1023
1023
1023
1023
1023
1023
1023
1023
1023
1023
1023
1023
1023
1023
1023
1023
1023
1023
1023
1023
1023
1023
1023
1023
1023
1023
1023
1023
1023
1023
1023
1023
1023
1023
1023
1023
1023
1023
1023
1023
1023
1023
1023
1023
1023
1023
1023
1023
1023
1023
1023
1023
1023
1023
1023
1023
1023
1023
1023
1023
1023
1023
1023
1023
1023
1023
1023
1023
1023
1023
1023
1023
1023
1023
1023
1023
1023
1023
1023
1023
1023
1023
1023
1023
1023
1023
1023
1023
1023
1023
1023
1023
1023
1023
1023
1023
1023
1023
1023
1023
1023
1023
1023
1023
1023
1023
1023
1023
1023
1023
1023
1023
1023
1023
1023
1023
1023
1023
1023
1023
1023
1023
1023
1023
1023
1023
1023
1023
1023
1023
1023
1023
1023
1023
1023
1023
1023
1023
1023
1023
1023
1023
1023
1023
1023
1023
1023
1023
1023
1023
1023
1023
1023
1023
1023
1023
1023
1023
1023
1023
1023
1023
1023
1023
1023
1023
1023
1023
1023
1023
1023
1023
1023
1023
1023
1023
1023
1023
1023
1023
1023
1023
1023
1023
1023
1023
1023
1023
1023
1023
1023
1023
1023
1023
1023
1023
1023
1023
1023
1023
1023
1023
1023
1023
1023
1023
1023
1023
1023
1023
1023
1023
1023
1023
1023
1023
1023
1023
1023
1023
1023
1023
1023
1006
998
1000
1004
1004
993
975
956
939
931
931
933
933
922
903
883
867
859
861
866
868
858
839
819
801
793
793
796
797
788
770
751
735
728
731
737
739
731
715
695
679
671
673
677
677
667
651
632
617
610
611
615
615
605
590
571
555
548
551
555
556
548
531
513
498
492
494
499
500
492
476
459
443
437
439
444
444
435
419
401
386
379
382
387
388
379
363
348
335
331
332
337
339
330
315
298
285
281
284
290
292
284
268
251
238
233
235
241
244
237
221
205
193
189
192
199
201
193
177
161
147
141
143
150
153
146
130
114
102
99
104
112
115
107
90
75
62
58
64
72
74
67
53
37
25
22
28
33
35
27
15
8
5
3
2
2
2
1
1
1
1
1
1
1
1
1
1
1
1
1
1
1
1
1
1
1
1
1
1
1
1
1
1
1
1
1
1
0
1
1
1
1
1
1
1
1
1
1
1
1
1
1
1
1
1
1
1
1
1
1
1
1
1
1
1
1
1
1
1
0
0
1
1
1
1
1
1
1
1
1
0
1
0
1
1
1
1
0
1
0
1
1
1
1
1
1
1
1
1
1
0
1
1
1
1
1
1
1
0
1
0
1
1
1
0
1
0
1
1
1
1
1
1
1
1
1
1
1
1
0
1
1
1
1
1
1
1
1
0
1
1
1
1
1
1
1
1
0
1
1
0
1
0
1
0
1
1
1
1
1
1
1
1
1
1
1
1
1
1
1
0
1
0
0
1
1
0
1
0
1
0
1
0
1
0
0
0
1
1
1
1
0
0
0
1
1
1
1
0
1
1
1
1
1
1
1
1
1
1
1
0
1
0
1
0
1
0
1
0
0
0
1
1
1
0
1
1
1
0
1
1
1
1
1
1
1
0
0
1
1
1
1
1
1
0
1
0
1
0
1
1
1
0
1
0
1
0
0
1
1
1
0
0
1
1
1
1
0
1
1
0
1
1
1
1
1
1
1
0
1
1
0
0
1
0
1
1
1
0
1
0
1
0
1
1
1
0
0
1
0
0
0
1
1
1
1
1
1
1
1
0
0
0
1
0
1
1
0
1
1
0
1
1
1
1
1
0
0
1
0
1
0
1
0
1
0
1
1
1
1
0
1
1
1
1
0
1
1
0
0
0
1
0
1
1
1
0
1
1
0
0
0
1
1
1
0
0
0
1
1
1
1
0
0
1
1
0
0
1
1
1
1
1
1
0
1
0
0
0
0
0
0
1
1
1
0
1
1
0
1
0
1
1
1
1
1
1
1
0
1
0
1
0
0
0
1
1
1
0
1
0
1
1
0
0
1
0
1
1
1
0
0
1
1
1
1
0
1
0
1
1
1
1
1
1
1
1
1
1
1
1
1
1
1
0
1
0
1
1
1
0
1
0
0
1
0
0
1
1
0
1
1
1
0
1
1
0
1
1
1
1
1
1
1
0
1
0
1
1
1
1
1
0
0
0
0
0
1
1
1
1
1
1
1
1
1
1
0
0
1
1
1
1
1
1
1
0
0
1
1
1
1
0
1
1
1
1
1
1
1
0
1
0
0
0
0
1
0
1
0
1
1
1
1
1
1
1
0
0
0
1
1
1
1
1
1
0
1
0
1
1
1
1
1
1
1
1
1
1
1
0
0
0
1
0
1
0
1
1
1
1
1
0
1
1
1
1
1
0
1
1
0
1
1
1
1
1
1
0
1
1
1
1
0
1
1
1
1
1
1
1
0
0
0
0
1
1
1
0
0
0
0
1
1
0
1
0
0
1
1
1
1
1
1
1
0
1
1
0
1
1
0
0
1
0
1
1
1
1
1
0
0
0
0
1
0
1
1
0
0
1
1
1
1
0
1
1
1
1
1
1
1
0
0
1
1
0
1
0
1
1
0
1
1
1
1
0
1
1
1
0
1
1
1
0
0
1
1
1
1
1
1
0
0
0
1
0
0
0
0
0
1
0
1
1
1
1
1
0
1
1
1
0
0
0
1
1
1
1
1
0
1
1
1
0
1
1
1
1
1
1
1
0
1
1
0
1
1
1
0
0
1
1
0
1
1
0
1
1
1
1
1
0
0
1
0
1
1
0
1
0
1
1
1
0
1
1
1
1
1
0
1
0
0
0
0
0
1
0
1
1
1
1
1
0
1
1
0
1
1
0
1
1
1
1
1
1
1
1
0
0
1
1
1
1
0
1
1
1
1
1
1
1
1
0
1
1
1
0
1
1
1
1
0
1
0
1
1
1
1
0
1
0
1
1
1
1
1
1
1
1
0
1
1
1
1
0
1
0
1
1
1
1
1
1
1
1
1
0
1
0
1
0
1
1
0
1
1
1
1
0
1
1
1
1
1
1
0
1
1
1
1
1
1
1
1
1
1
1
1
1
1
1
1
1
1
1
1
1
1
1
1
1
1
1
1
1
1
1
1
1
1
1
1
1
1
1
1
1
1
1
1
1
1
1
1
1
1
1
1
1
3
4
2
1
1
1
1
2
11
13
7
4
2
1
1
9
21
22
15
8
4
2
5
17
28
29
21
12
6
4
12
26
39
41
31
19
12
12
23
37
47
48
40
31
25
25
34
47
57
56
49
38
29
29
39
52
63
64
57
48
39
39
48
61
72
72
66
56
46
45
54
68
80
80
72
60
50
51
62
75
85
85
76
65
58
60
69
82
94
94
86
74
66
67
78
91
101
100
91
81
73
72
81
95
105
106
98
87
78
78
88
104
114
114
105
94
86
87
97
111
121
121
113
103
94
94
105
119
130
131
123
112
102
102
113
129
140
141
133
122
113
112
121
134
144
145
138
128
117
116
126
140
151
153
144
132
123
123
134
150
160
159
150
140
131
132
142
157
167
167
159
148
139
140
150
165
177
179
171
162
154
156
165
177
187
186
177
166
157
157
168
183
195
196
187
175
166
167
176
190
202
201
192
180
171
174
185
198
208
207
198
187
177
178
189
203
214
215
206
196
189
192
204
218
230
229
220
208
198
199
209
222
232
234
226
214
205
206
216
230
240
240
231
220
211
213
224
237
247
247
238
227
217
219
228
239
247
246
238
227
219
222
234
246
254
251
242
232
223
225
238
252
261
259
249
236
226
228
240
255
266
264
255
243
235
235
247
260
270
268
258
246
239
241
253
266
276
274
264
252
244
246
257
271
282
281
273
262
252
254
264
276
286
286
278
267
258
259
269
283
292
290
280
269
259
260
272
285
294
293
283
271
263
266
278
291
300
298
288
277
269
271
280
292
302
301
292
282
275
277
288
302
313
313
303
291
283
284
294
308
319
318
309
297
289
292
304
318
326
323
314
302
294
296
308
321
332
331
321
310
302
306
317
329
337
336
326
314
304
305
317
331
341
340
331
320
312
312
324
336
344
341
331
320
312
314
324
336
347
346
337
325
317
319
327
340
348
345
335
324
317
321
333
348
358
356
345
334
326
327
337
350
360
358
349
338
330
333
345
357
365
365
358
348
340
342
352
364
374
373
362
350
341
343
354
367
374
370
360
350
343
348
359
370
379
376
366
354
347
350
362
374
382
380
370
360
354
357
367
379
385
381
372
363
356
361
374
387
396
396
387
375
365
366
376
377
392
395
384
372
362
365
512
501
495
501
516
529
536
524
508
531
519

520
525
530
522
493
500
513
525
528
520
506
497
504
494
489
496
509
521
525
517
490
498
513
525
527
518
504
493
508
494
490
497
510
524
527
521
489
495
506
518
523
518
507
496
507
495
490
494
507
522
528
521
490
497
511
523
527
520
507
495
507
495
489
496
509
521
526
519
493
500
515
527
530
523
510
496
517
498
495
504
519
530
534
528
501
506
517
528
532
525
512
506
512
499
494
501
516
529
534
527
496
505
518
