414
403
425
469
509
518
495
451
412
403
425
468
508
518
495
451
412
403
426
471
512
523
502
459
417
406
428
473
515
526
502
459
419
409
431
474
516
526
502
458
418
407
430
474
515
526
504
460
420
410
431
475
516
528
505
461
421
410
432
478
520
532
510
466
426
413
432
477
519
531
508
464
422
409
430
474
517
529
506
463
421
407
428
473
515
527
505
461
420
407
426
467
510
525
503
459
417
404
424
465
507
521
502
460
417
403
422
464
506
520
500
458
415
401
421
464
506
521
501
459
418
404
423
465
507
522
502
459
416
401
419
460
501
515
496
453
411
397
416
459
503
518
498
456
413
398
417
459
502
517
497
457
415
401
419
461
504
518
499
458
414
399
418
460
502
518
497
455
412
399
418
459
501
516
497
456
411
395
413
456
500
517
498
457
414
400
417
457
500
514
495
454
412
397
414
456
500
516
498
457
414
398
416
457
501
518
500
458
414
397
413
454
498
515
497
457
414
397
414
456
501
518
501
461
420
404
420
458
501
518
499
458
415
399
416
456
500
519
502
462
417
400
416
456
500
518
500
458
414
398
417
460
506
525
508
469
425
407
424
463
505
522
504
464
420
402
416
457
503
522
504
464
420
402
419
460
505
525
510
470
427
409
425
467
513
533
518
478
432
412
427
468
513
532
517
477
433
415
430
469
514
533
518
477
432
414
429
469
514
534
519
478
434
415
431
471
518
537
520
479
434
415
430
470
516
537
523
484
439
420
436
475
520
541
526
485
440
420
434
473
520
543
528
488
443
423
438
477
522
541
528
490
445
424
438
478
524
545
532
492
445
423
436
475
521
543
529
490
445
424
437
477
524
546
534
496
452
430
442
482
528
550
536
498
451
430
443
481
526
548
537
500
454
431
443
482
530
553
540
501
455
433
445
483
528
550
537
499
454
433
444
482
528
550
537
500
455
434
446
483
528
550
539
503
458
435
447
485
531
555
542
504
458
435
448
487
535
557
545
507
461
439
451
489
537
560
548
509
463
440
452
489
536
560
549
511
465
442
454
491
539
562
551
513
468
444
456
494
540
563
553
517
471
447
457
494
540
564
553
517
471
446
455
491
537
562
553
517
469
444
453
490
538
563
555
518
470
445
454
491
537
561
551
513
467
443
454
490
538
564
555
518
470
445
456
493
540
566
556
519
471
445
455
492
541
569
560
524
477
450
458
493
540
567
558
521
473
446
456
492
539
565
558
524
476
448
456
490
537
564
557
523
476
449
457
493
540
567
560
525
477
451
458
492
539
566
559
525
479
453
462
497
544
570
563
528
482
455
462
496
542
569
564
531
483
455
463
499
548
576
569
534
485
456
462
496
543
570
563
529
483
455
461
496
544
573
566
531
483
454
461
494
542
571
565
531
483
454
460
493
541
569
562
527
480
453
459
494
543
572
566
532
486
458
462
495
544
573
568
536
489
460
465
497
545
573
569
535
487
458
463
496
543
572
568
536
489
459
461
492
539
567
562
530
484
455
460
493
541
571
565
532
483
453
459
494
542
571
565
532
484
454
459
493
540
571
569
538
492
462
466
497
544
574
568
536
488
458
463
495
543
573
570
537
488
456
459
490
538
571
569
537
490
459
462
494
542
571
568
536
489
456
458
490
539
570
567
534
487
457
460
491
539
572
569
537
490
458
460
491
538
570
568
536
489
458
461
492
538
569
567
536
488
457
459
490
539
571
569
537
490
458
460
491
538
569
566
535
489
457
457
487
534
567
566
537
491
458
458
489
536
570
570
540
493
461
461
490
537
571
571
541
493
460
461
492
539
573
572
543
496
464
464
495
544
576
576
545
498
465
465
494
542
575
575
546
499
466
465
493
538
571
571
541
493
459
459
488
535
570
571
543
497
464
463
491
537
571
571
540
493
460
460
490
538
572
573
543
495
460
459
488
536
571
574
546
499
465
464
494
542
576
575
546
498
461
459
487
533
569
571
543
496
461
458
485
532
569
572
544
496
463
461
489
537
573
577
550
502
466
463
491
539
574
576
548
500
464
462
490
536
573
576
548
501
465
461
487
534
571
574
545
498
464
462
489
535
570
572
544
497
462
460
489
538
574
577
548
499
464
462
489
536
572
575
549
503
466
461
486
533
570
575
548
501
465
461
488
536
572
576
549
503
466
462
488
533
569
574
547
501
464
459
487
534
572
577
550
503
465
460
486
531
569
574
547
502
466
460
487
534
571
575
548
501
464
459
485
530
567
572
546
501
464
458
485
532
570
576
550
502
463
456
482
529
568
573
547
499
462
456
483
528
566
571
545
498
460
454
480
526
566
575
550
502
464
458
485
532
570
575
548
501
464
460
485
531
569
574
548
503
466
459
484
529
568
575
549
501
462
456
481
527
565
573
549
504
466
458
482
528
567
575
551
506
468
460
484
528
566
573
548
501
463
457
481
526
565
572
548
502
462
453
478
525
566
575
551
504
464
455
479
524
564
573
549
503
464
458
483
529
569
578
553
506
466
456
480
526
566
575
552
507
467
457
480
525
564
573
549
503
464
454
477
521
561
569
545
499
460
451
474
519
559
569
547
502
461
452
476
521
561
571
550
506
467
457
479
524
565
575
552
507
467
454
475
519
560
569
546
502
463
454
477
522
562
573
550
506
467
457
480
523
564
575
553
509
469
458
480
525
568
579
556
510
468
457
478
521
561
573
551
507
465
455
476
521
563
576
554
509
467
455
477
521
562
575
554
511
471
458
479
522
563
574
552
507
465
453
475
520
562
575
554
509
467
454
476
520
562
574
553
510
470
458
480
525
565
577
554
510
469
456
477
520
562
576
555
511
468
455
477
522
565
578
557
514
470
456
476
519
561
574
553
509
467
454
474
516
559
573
553
508
466
453
473
516
559
572
552
509
466
451
471
513
555
569
551
508
467
453
473
517
560
574
554
510
467
452
471
513
556
573
555
511
468
453
472
514
557
573
555
513
470
455
475
518
562
577
558
516
472
456
474
518
561
574
556
514
470
455
472
515
560
575
556
513
469
453
471
513
557
572
554
512
470
455
472
514
559
575
556
513
468
452
470
510
553
568
550
510
468
452
470
512
557
573
555
513
470
452
469
511
556
573
556
515
471
455
471
513
557
574
556
514
470
452
469
510
553
570
553
512
469
452
470
512
556
573
555
516
472
455
471
512
556
574
556
514
470
451
468
508
554
572
556
515
469
451
467
507
552
570
554
513
470
454
471
510
555
574
557
515
470
453
469
509
555
573
557
516
472
454
470
510
556
574
557
515
469
451
466
506
551
569
553
513
467
448
465
506
552
571
556
517
472
451
466
505
550
569
556
515
469
451
466
505
549
568
553
514
468
448
464
503
549
570
555
515
469
449
464
504
550
569
554
512
466
446
461
501
548
570
556
516
470
448
461
500
548
570
558
518
472
449
463
503
548
569
556
516
471
451
464
503
549
570
555
517
472
450
463
502
549
572
559
520
475
454
467
506
551
571
558
518
470
449
462
500
546
568
556
518
473
451
463
501
545
566
553
514
469
446
459
498
545
568
556
518
473
449
461
499
545
568
557
518
471
448
459
497
544
566
554
516
470
448
460
496
543
567
556
517
470
447
459
496
543
566
554
514
468
445
456
495
542
565
554
515
468
446
457
494
541
564
553
516
470
446
458
496
542
565
554
517
472
448
458
494
540
564
553
516
470
445
456
494
543
569
559
523
476
450
461
497
544
568
557
519
473
448
459
496
543
568
556
519
472
447
456
494
541
566
556
519
472
446
455
490
537
564
556
520
473
448
457
494
540
565
555
518
471
446
455
490
536
561
552
517
473
448
457
495
541
566
557
519
472
446
455
492
540
566
557
520
473
447
455
491
537
562
553
517
470
446
456
492
539
565
556
520
474
448
457
491
537
564
556
520
473
446
455
490
536
563
557
523
478
451
459
492
540
567
559
522
475
448
454
489
537
565
558
524
476
448
453
487
534
562
555
521
473
446
454
489
538
565
557
522
474
446
453
488
534
562
555
520
472
444
450
484
532
560
554
520
473
446
455
489
538
568
563
529
480
449
454
488
536
565
559
524
476
448
455
490
537
565
558
523
475
446
452
485
533
563
558
524
476
446
451
486
534
564
559
527
480
452
457
490
538
567
561
528
481
453
457
489
535
563
558
525
478
447
452
487
535
566
563
531
484
455
460
492
540
571
567
533
485
456
460
493
541
571
567
534
487
458
463
496
545
575
570
538
490
459
463
496
544
575
570
537
492
462
464
496
544
575
570
537
490
460
463
494
540
569
564
532
487
458
462
495
542
572
567
535
488
456
459
491
538
570
567
535
487
455
458
492
540
572
569
535
487
455
459
491
539
570
566
534
487
456
458
490
538
571
569
537
489
457
460
491
537
568
566
534
487
455
457
486
532
564
564
535
487
454
456
487
535
568
566
535
488
456
457
487
533
566
566
536
489
456
456
484
531
564
561
530
482
449
449
480
527
559
558
527
481
449
450
480
527
560
560
530
484
451
451
481
528
561
560
529
482
448
449
479
525
559
559
528
481
446
445
476
525
560
560
531
484
450
450
482
530
567
568
537
488
453
452
483
531
565
565
535
488
453
453
482
528
562
563
534
488
454
454
484
531
565
565
535
487
452
451
480
527
561
563
534
487
452
451
480
527
562
564
535
487
450
447
476
524
558
560
532
487
452
450
478
524
559
561
533
487
452
450
478
525
561
563
535
488
451
448
477
526
561
564
536
488
452
448
476
524
560
562
533
487
452
448
476
522
557
559
531
485
451
449
477
523
559
560
530
481
443
439
467
515
553
556
528
481
444
440
467
514
550
553
527
482
446
442
470
516
553
557
530
483
447
443
470
516
553
558
532
486
449
444
470
516
552
557
530
485
447
441
467
514
552
559
533
488
451
446
473
520
558
562
535
488
451
447
473
517
555
560
534
487
449
442
467
514
552
557
531
486
449
443
468
513
550
557
532
486
449
443
469
514
553
558
531
486
448
442
468
513
551
558
532
486
449
443
468
513
550
557
531
485
447
442
468
514
552
559
534
489
452
446
471
516
554
560
534
489
452
446
469
515
555
563
539
493
455
447
470
515
554
562
536
488
448
439
462
508
549
555
530
484
446
439
464
511
550
558
535
490
450
443
468
512
551
559
535
491
451
443
467
513
554
563
538
492
452
443
466
511
553
563
540
495
456
447
469
514
555
563
540
496
456
447
470
514
556
566
543
497
457
447
471
517
557
566
542
496
455
445
467
512
552
561
539
496
456
446
470
516
557
565
542
497
456
444
467
511
552
562
539
495
455
444
466
512
554
564
541
494
452
440
463
509
552
562
540
495
456
447
469
513
554
563
540
494
453
443
465
508
550
559
536
493
453
442
464
508
551
561
539
495
455
444
465
509
551
562
540
496
453
441
462
506
548
560
539
496
455
442
464
509
552
563
540
494
453
442
462
505
546
558
539
496
454
441
461
502
544
557
536
492
450
437
459
503
545
558
538
496
454
442
462
505
547
559
538
495
454
440
460
503
546
560
541
497
457
443
464
506
550
564
544
500
460
446
467
509
552
566
545
500
457
442
460
502
545
559
539
497
455
441
461
504
548
562
542
498
456
443
463
503
546
560
541
497
456
442
461
503
547
562
543
499
456
441
460
502
547
563
543
498
456
441
460
502
546
561
543
500
458
442
460
502
546
564
547
505
463
447
465
506
549
564
545
502
459
443
461
503
546
562
544
501
459
443
460
502
547
564
546
502
457
440
457
498
543
559
542
500
457
441
458
499
544
561
543
501
457
440
457
498
544
562
544
502
459
442
458
499
543
560
543
501
457
441
459
501
547
565
548
505
461
444
461
502
547
565
547
504
460
443
460
501
546
563
547
506
462
444
460
499
543
559
544
503
460
443
459
498
543
561
546
507
462
444
459
499
545
563
547
506
462
443
459
499
545
563
547
505
460
441
455
494
539
559
543
504
459
442
457
497
543
563
548
507
461
442
456
496
542
560
546
505
460
442
458
498
543
562
547
506
461
441
457
497
543
564
549
508
462
441
456
496
544
564
548
506
461
439
454
493
539
558
545
506
460
439
454
494
542
564
549
509
463
442
457
497
543
563
549
510
466
445
457
495
541
562
547
508
463
441
455
494
540
560
546
507
460
438
452
491
538
560
546
506
461
441
454
492
538
560
547
509
463
441
452
490
535
556
544
504
459
437
450
489
535
557
544
506
460
437
448
487
533
555
542
503
459
436
448
485
533
556
544
504
458
435
448
485
532
555
544
506
462
441
453
492
540
562
549
511
466
444
456
494
541
564
552
513
467
444
455
491
537
560
550
512
467
444
454
491
539
563
551
511
464
440
451
489
535
559
548
510
464
442
452
489
535
561
550
512
466
444
454
490
537
561
550
513
467
443
453
490
537
561
551
515
468
444
455
491
538
562
553
516
470
445
455
493
541
564
552
514
467
442
450
484
531
556
547
512
467
443
453
489
536
561
551
514
468
442
452
487
533
560
551
516
469
444
453
487
533
557
548
512
465
441
451
488
534
559
550
514
468
441
450
486
534
560
552
515
468
442
450
487
534
560
550
514
469
444
452
488
535
562
554
519
471
445
453
489
535
561
552
516
471
446
453
487
534
561
554
520
473
445
452
486
533
560
551
516
470
443
450
486
534
561
553
516
469
442
449
484
532
559
551
516
468
438
443
478
526
554
547
514
468
441
448
483
532
562
556
521
474
445
450
484
531
559
551
516
469
442
449
484
532
560
553
518
470
441
447
481
530
560
554
520
472
442
445
479
528
559
555
523
476
447
452
485
532
558
553
518
471
443
448
482
530
561
555
521
473
445
451
484
532
561
556
522
474
444
449
482
528
558
554
520
472
443
448
480
526
557
554
522
476
447
451
481
527
557
554
523
476
447
451
484
532
563
558
524
477
446
451
483
531
562
559
527
479
448
452
485
533
562
557
524
477
448
452
484
532
562
559
526
479
448
450
483
532
563
559
525
477
445
448
480
528
561
558
526
479
447
447
478
526
557
554
523
477
448
451
483
529
559
556
525
479
448
450
482
530
560
556
523
475
443
444
475
523
557
555
524
477
446
448
481
529
562
561
529
482
448
449
479
528
561
558
526
478
445
447
479
527
559
556
526
479
446
448
480
528
559
558
526
480
448
448
479
527
558
558
528
482
449
450
482
529
562
562
532
484
450
451
481
528
561
560
529
480
445
445
477
526
561
561
531
483
449
447
476
523
557
558
528
481
447
447
477
525
559
559
530
483
450
450
480
528
562
562
532
485
449
447
476
522
556
556
526
480
448
448
478
525
558
557
528
482
447
445
474
520
556
557
529
483
449
447
477
523
558
560
532
485
450
449
478
525
559
561
531
483
449
447
476
523
559
561
533
486
452
450
479
526
561
564
537
490
455
450
478
525
559
560
531
482
446
444
471
518
554
556
528
480
444
442
472
520
555
558
530
483
448
446
472
518
554
558
530
484
449
445
473
519
556
560
533
487
452
449
475
520
556
558
529
482
447
443
471
519
556
560
532
484
447
444
473
520
557
560
533
485
448
445
473
521
558
561
533
486
450
446
472
518
555
559
532
485
448
444
472
520
558
562
535
488
452
447
475
522
558
563
537
491
453
447
473
520
558
561
535
489
453
449
475
520
557
563
537
491
455
449
476
521
558
563
536
490
452
445
470
517
557
562
537
491
454
447
473
519
558
564
539
492
454
448
473
519
558
564
539
493
455
448
473
518
556
562
536
490
451
445
472
517
556
563
538
493
455
449
474
520
560
566
540
494
456
449
473
519
558
565
540
493
455
448
472
517
557
564
538
492
452
445
470
516
554
562
537
492
454
446
472
518
558
567
544
499
461
453
476
520
560
569
545
498
459
449
473
518
557
565
541
496
457
448
471
517
558
566
541
495
456
449
472
517
556
563
540
495
456
449
473
518
558
566
542
498
458
447
471
516
555
564
542
499
460
451
474
519
559
568
545
498
456
446
470
514
554
563
539
493
454
445
468
513
554
563
540
495
455
446
469
514
554
565
545
501
461
450
473
518
558
566
543
498
457
446
467
512
553
565
544
499
459
448
470
514
555
565
542
498
457
446
468
511
552
564
541
497
456
445
466
509
551
563
541
496
455
443
463
506
549
561
540
496
455
444
467
510
551
562
540
495
454
443
464
507
547
558
537
493
452
440
461
504
547
559
537
492
451
439
461
505
550
563
542
497
455
443
464
508
550
563
544
500
458
445
465
508
552
566
546
502
462
448
469
512
554
567
546
503
461
448
468
512
554
566
545
501
459
446
467
510
553
566
545
500
457
443
464
507
550
565
546
504
461
447
466
508
550
562
541
496
455
441
461
504
547
561
542
498
456
443
464
506
549
563
544
501
458
443
462
504
547
562
544
502
459
444
464
508
552
566
546
502
459
443
461
503
547
561
542
499
456
441
460
503
546
562
543
499
456
440
459
503
548
564
545
502
459
444
462
504
548
564
546
503
459
443
461
503
548
564
546
503
460
444
460
502
546
563
545
502
459
443
460
501
546
563
546
503
460
443
461
502
547
564
545
504
460
444
461
502
547
565
549
507
464
446
463
504
548
564
548
507
463
444
459
501
547
564
547
504
459
442
457
497
542
560
543
502
459
441
459
501
546
563
546
504
460
443
460
502
546
563
546
505
462
444
461
502
548
567
551
510
466
448
465
506
551
568
550
508
463
445
460
502
547
565
550
510
466
447
461
501
545
563
547
509
465
445
460
500
546
566
550
507
461
443
457
497
542
561
546
505
461
444
460
500
546
567
551
510
465
445
460
500
546
565
551
512
468
449
464
503
548
567
551
511
465
445
460
498
544
565
551
511
466
445
458
497
543
562
548
508
463
444
458
498
544
565
552
512
467
446
460
498
543
565
552
512
466
445
458
496
542
562
548
509
465
444
457
495
542
563
551
512
466
444
456
495
542
563
551
513
467
446
459
498
544
565
552
513
467
445
457
495
541
562
549
510
465
443
455
494
542
564
552
510
464
442
455
493
539
562
550
510
465
443
455
494
539
559
545
506
461
439
451
489
536
560
549
512
466
442
452
488
533
555
544
505
460
437
448
486
534
558
545
506
461
438
449
487
535
560
550
512
465
442
454
492
540
564
552
514
468
445
455
493
540
562
550
510
464
440
451
488
535
559
549
513
468
445
456
493
539
563
552
514
468
444
454
491
538
562
551
514
466
442
451
488
535
560
551
514
467
443
452
490
537
561
549
511
465
440
449
485
531
556
547
511
466
443
454
491
538
563
552
515
468
442
450
485
532
558
548
512
467
444
453
489
536
562
554
517
471
445
452
487
535
561
553
516
470
443
451
488
535
561
552
515
468
443
452
487
533
559
552
516
469
442
452
487
534
559
551
516
469
443
453
489
537
563
554
517
468
440
448
484
534
561
554
517
469
442
451
486
533
560
552
517
470
443
450
485
533
562
555
519
472
444
451
485
533
560
553
519
474
448
455
488
534
561
554
520
474
447
453
487
534
561
554
519
471
443
450
485
533
560
553
519
473
445
452
486
533
563
558
523
476
448
454
488
534
561
554
518
471
443
449
483
529
556
550
517
470
441
446
480
528
558
553
519
472
444
450
484
532
561
554
520
474
444
450
483
531
560
556
522
476
448
454
487
533
562
555
522
474
445
450
484
529
558
552
520
473
444
449
481
527
557
553
520
472
443
448
482
529
557
552
519
471
442
446
479
527
558
555
523
477
446
450
482
529
560
555
522
474
443
446
478
526
558
555
522
475
444
446
478
525
557
554
522
475
443
446
480
528
558
554
522
475
444
446
476
524
556
553
522
474
443
445
477
524
555
553
521
474
442
445
477
525
557
555
523
475
443
446
479
527
559
556
522
472
442
443
473
520
552
550
519
473
440
442
473
521
554
552
520
474
442
444
476
522
554
552
521
474
442
444
475
522
554
553
524
478
446
447
478
525
557
554
522
476
445
447
477
524
558
558
527
479
445
445
476
523
556
555
523
475
442
445
476
524
555
552
520
473
439
441
472
519
553
554
523
477
444
445
475
521
555
555
526
479
445
445
476
522
556
556
525
477
443
442
472
518
551
552
522
477
443
442
471
516
549
550
520
472
439
438
468
515
549
549
519
471
437
435
464
511
547
548
519
472
439
437
466
512
546
547
517
470
436
436
465
510
544
545
515
468
433
432
460
506
541
543
515
468
432
430
459
506
543
545
516
470
435
435
464
510
545
547
518
472
437
434
461
507
543
545
516
470
436
434
464
510
546
549
521
473
437
434
464
512
548
551
521
474
438
436
464
510
546
548
520
473
437
433
461
508
545
550
523
477
440
437
465
510
545
549
521
475
438
434
461
506
543
547
520
473
435
431
460
506
543
547
519
472
434
430
458
504
542
547
520
473
435
430
455
501
539
543
517
471
434
431
458
502
538
543
518
472
435
430
456
503
543
548
522
477
442
436
462
507
544
549
522
474
436
431
458
504
543
551
526
480
444
440
468
515
552
557
529
481
442
435
460
505
543
550
525
480
443
436
461
507
547
554
528
482
444
438
463
509
548
554
530
485
446
439
462
506
544
552
525
480
443
436
462
507
547
554
528
481
443
438
463
506
544
551
525
479
442
435
461
506
544
550
525
480
442
436
463
509
547
552
525
480
442
435
460
505
546
553
527
482
445
438
463
507
546
554
528
482
442
434
459
504
545
554
530
486
446
438
461
504
543
552
527
482
443
436
459
504
543
551
527
483
447
440
463
509
551
559
534
489
448
439
462
507
548
556
533
489
451
443
466
510
549
557
533
487
446
437
462
506
547
556
533
489
450
442
465
508
548
557
533
488
448
439
463
508
549
558
536
490
449
441
464
508
549
558
535
490
448
437
459
503
545
555
532
488
449
440
462
506
547
557
534
489
449
439
461
504
547
558
533
488
447
437
459
502
544
555
532
488
448
436
457
501
543
554
533
490
450
439
460
503
545
554
531
488
447
435
456
501
544
555
534
490
449
436
456
499
543
554
532
487
445
434
454
497
539
551
531
487
445
434
456
500
542
555
534
490
448
437
460
504
545
557
535
492
450
439
459
502
544
557
536
493
451
438
459
501
543
557
536
491
