480
529
564
566
537
488
452
450
480
527
563
563
533
486
451
449
480
529
564
563
531
483
447
445
475
525
562
565
535
486
449
446
475
523
559
561
529
480
444
443
472
520
558
560
530
482
446
443
472
519
555
557
526
478
441
438
467
516
553
556
527
480
444
442
470
516
552
556
528
481
445
440
468
515
551
555
527
481
445
442
469
515
552
555
526
480
442
437
462
508
547
552
526
479
441
436
463
508
545
550
523
477
440
436
465
510
548
551
523
475
438
434
461
507
544
549
522
474
437
432
458
503
541
545
518
472
435
430
458
504
541
546
520
475
439
434
463
510
549
554
528
483
445
440
468
516
556
565
542
496
458
452
479
525
563
570
544
499
461
456
483
530
570
577
552
506
467
461
488
535
575
582
557
510
471
465
489
536
575
582
557
509
470
461
485
531
572
579
553
506
465
457
481
527
567
575
550
504
464
455
479
525
563
570
544
499
459
450
474
519
559
566
541
494
455
447
469
513
553
560
535
489
449
441
466
512
554
564
539
494
455
447
471
515
555
565
542
496
457
448
471
516
558
569
546
500
460
451
475
519
560
570
546
501
462
453
476
522
563
572
550
505
465
455
480
525
567
578
552
507
467
456
481
527
569
579
555
509
468
458
482
526
566
577
555
510
469
456
477
522
563
576
554
510
470
458
479
523
564
576
555
510
468
456
477
521
563
575
553
509
467
455
476
521
563
576
554
510
467
455
478
523
565
579
558
513
469
455
476
520
563
576
555
513
471
458
478
521
563
578
558
516
473
459
480
523
566
582
562
519
476
461
481
524
567
581
560
516
474
460
480
524
566
580
559
515
472
458
479
524
567
581
561
518
475
461
479
521
564
579
560
517
473
457
478
521
563
579
559
517
473
458
477
519
563
578
560
518
475
460
479
523
567
583
564
522
477
460
477
518
562
579
563
521
476
459
476
518
561
577
559
518
474
458
476
517
561
579
563
521
475
457
473
516
562
579
561
519
475
459
477
519
563
580
562
521
478
461
477
518
563
581
564
522
475
455
471
512
557
574
557
516
472
454
471
510
554
573
557
516
472
453
468
508
554
572
556
516
473
454
469
509
555
575
559
519
473
454
470
510
555
574
560
519
475
456
471
511
555
574
559
518
472
452
467
508
554
573
558
517
472
451
465
505
550
570
556
517
474
455
469
508
555
576
562
522
476
454
468
507
552
572
559
519
474
453
467
505
551
572
558
519
473
451
464
504
551
574
561
522
476
455
467
506
552
574
560
522
476
456
469
507
551
571
557
518
473
451
464
503
550
572
560
523
476
454
465
503
550
573
560
521
476
454
466
504
550
572
559
522
476
453
465
503
551
575
562
523
477
454
466
503
549
572
559
522
477
454
465
502
547
571
559
521
474
450
462
501
549
573
561
523
475
451
463
499
544
569
558
520
474
449
461
499
547
572
560
522
474
450
461
499
546
570
559
522
476
452
462
498
546
571
561
525
478
452
463
499
545
570
560
524
478
452
463
499
547
573
565
529
482
455
463
500
548
575
565
526
479
451
460
496
544
570
561
526
479
453
461
495
543
571
563
526
478
451
459
493
541
569
560
524
476
448
455
491
540
569
562
527
481
454
462
498
546
574
565
531
484
457
466
503
550
576
566
529
480
452
460
495
542
569
560
525
479
451
457
492
540
568
562
529
483
453
459
493
541
569
561
527
480
450
457
492
540
568
562
528
480
450
454
488
536
566
560
527
481
451
457
492
540
570
564
531
482
451
456
491
539
569
563
529
483
454
459
494
542
572
565
531
484
454
458
492
540
570
566
532
485
455
460
492
541
571
566
533
486
456
459
492
540
570
565
531
483
451
455
487
534
566
564
531
483
451
455
488
536
568
565
532
485
454
456
488
537
568
565
533
484
452
454
487
535
567
564
532
485
455
459
492
538
570
567
533
485
452
452
485
534
567
565
534
486
453
455
485
532
566
564
533
485
453
455
488
536
570
569
538
488
454
456
487
534
567
564
532
485
453
454
486
534
568
567
535
487
454
454
485
533
567
565
533
487
455
456
487
535
569
568
538
491
457
457
486
533
566
567
536
489
455
455
486
533
568
568
539
490
455
455
485
531
566
566
536
490
456
455
485
531
565
566
537
491
456
455
485
532
567
567
538
490
455
454
482
529
563
563
534
486
452
452
482
529
563
565
536
489
454
451
481
528
564
567
538
491
454
452
480
526
562
565
539
493
458
455
484
530
566
569
540
493
457
453
480
527
564
568
540
494
458
456
485
531
567
570
542
495
459
454
481
528
565
569
540
493
456
451
479
526
562
566
539
492
456
453
482
529
567
572
544
496
459
453
480
527
565
568
540
493
456
452
480
526
563
568
542
497
460
456
483
528
564
568
540
493
455
450
477
523
562
567
540
495
458
452
477
524
563
567
540
495
457
450
475
521
559
563
538
491
452
447
475
521
559
566
541
494
455
449
475
521
559
565
541
496
458
451
478
525
563
569
543
497
457
449
474
519
558
565
540
495
457
451
477
524
562
569
543
497
458
451
477
523
562
570
545
499
459
450
474
519
558
568
544
499
459
450
474
519
559
568
544
499
458
449
473
518
558
568
545
499
459
449
472
516
556
564
541
497
457
449
473
517
557
568
545
500
459
450
476
521
561
571
546
500
459
449
473
518
558
567
544
499
459
449
473
518
559
570
547
502
461
450
473
517
559
569
547
502
461
449
472
516
558
569
548
503
461
448
470
515
557
567
544
500
459
448
471
516
559
572
550
507
466
452
473
517
559
571
549
503
461
449
470
514
556
567
546
503
462
450
471
515
558
570
549
504
462
451
473
517
559
570
548
504
461
449
470
515
559
573
552
507
465
452
474
518
562
576
555
511
469
453
471
512
554
568
550
508
465
450
469
511
554
567
547
506
463
449
468
511
555
569
549
506
462
449
469
513
558
573
553
511
468
452
471
514
557
571
551
507
464
448
467
510
554
570
551
509
466
450
469
510
554
570
550
507
465
450
469
509
552
569
551
508
464
447
465
505
551
568
551
509
465
447
464
505
552
569
551
508
465
448
464
504
549
566
550
509
465
447
464
504
548
565
549
509
466
448
466
509
555
574
556
515
468
450
467
507
553
571
555
514
469
450
466
506
552
570
554
514
470
451
467
508
553
573
556
514
468
449
464
506
552
570
554
514
470
452
467
508
554
572
555
513
468
448
463
503
549
569
553
513
468
448
463
502
547
567
552
512
466
447
462
502
549
569
552
511
466
447
463
502
548
568
553
511
467
447
462
502
550
571
555
515
469
449
464
504
552
574
560
519
473
451
463
501
548
570
557
518
472
451
464
502
548
569
557
518
471
449
462
501
548
569
556
518
472
449
461
500
546
569
557
519
472
449
461
499
546
570
557
517
471
448
461
499
547
570
558
519
472
449
461
499
547
571
559
521
475
453
463
499
544
566
555
518
472
447
459
496
544
569
557
518
471
447
460
500
548
571
559
521
473
450
462
498
544
568
557
520
474
451
462
500
548
573
561
525
478
452
461
496
542
567
556
520
472
449
459
496
543
570
560
523
477
452
463
498
545
570
561
524
477
450
459
494
540
565
556
520
473
448
457
492
540
566
557
522
474
447
455
490
538
564
557
521
474
448
458
494
542
568
559
523
477
451
461
497
544
571
563
527
479
452
459
494
542
569
561
526
478
450
458
494
543
570
563
527
478
450
459
495
543
572
564
529
480
452
460
494
542
570
563
527
480
452
458
492
540
568
561
525
477
449
456
490
536
563
557
523
476
447
452
487
535
564
558
523
474
444
450
484
532
560
555
521
474
446
452
486
534
562
555
521
474
444
450
484
531
561
557
524
476
447
453
487
535
565
559
524
476
447
452
485
533
562
556
523
477
447
451
484
531
561
557
524
478
449
455
489
537
567
563
531
485
456
461
494
542
572
567
534
486
455
459
492
538
567
562
529
482
451
454
487
535
566
562
530
483
453
456
488
535
566
563
530
483
452
456
489
536
569
568
534
486
455
458
489
535
564
560
528
481
449
452
483
531
564
562
531
483
450
452
485
533
565
563
532
485
454
456
486
534
567
566
535
488
455
457
489
536
569
567
536
490
458
459
489
537
570
569
537
487
454
454
485
531
564
565
534
488
455
456
487
534
568
568
536
488
455
456
486
532
566
565
534
487
453
454
484
529
561
561
531
485
452
452
483
531
566
568
537
490
456
455
485
533
567
567
537
490
456
455
484
532
568
568
538
492
459
457
486
532
567
568
538
490
454
451
479
527
562
564
536
489
454
451
479
526
562
564
534
486
450
447
476
522
558
561
533
488
454
452
481
527
562
565
535
487
450
448
476
523
558
560
533
487
451
450
478
525
560
562
535
488
453
451
480
526
561
566
539
493
457
453
480
527
563
567
539
492
456
452
480
525
560
562
534
488
452
449
477
524
562
567
540
494
457
452
479
527
565
569
542
496
459
454
481
526
563
569
544
499
461
454
482
529
567
573
546
499
461
455
482
530
568
573
545
498
461
455
483
529
568
573
546
499
460
452
478
523
561
566
541
496
459
454
481
527
564
571
546
500
462
455
481
526
564
572
545
499
460
452
477
522
561
568
543
496
456
448
472
518
558
566
541
494
454
447
473
520
560
567
543
498
459
450
475
521
561
568
543
498
459
451
476
521
560
567
543
496
457
449
473
520
561
571
545
499
460
451
474
520
560
569
546
502
464
456
479
523
561
568
544
500
461
450
472
516
558
569
547
501
461
451
473
518
559
569
546
501
461
452
477
521
560
569
547
502
462
452
475
520
562
572
549
505
464
454
476
519
560
570
548
503
462
450
472
517
557
567
544
499
457
446
467
510
552
564
543
499
459
448
469
513
555
567
546
501
461
449
470
514
557
570
549
506
466
455
477
522
563
576
555
511
469
457
476
519
561
574
553
509
466
453
476
520
563
576
555
513
471
457
478
521
564
578
556
511
469
457
478
522
563
576
557
515
472
459
481
524
567
583
563
519
476
461
481
525
567
582
563
521
477
461
481
525
569
584
565
522
479
463
482
525
568
583
565
524
481
465
484
526
571
587
568
526
484
468
486
527
570
585
567
526
483
467
486
529
573
589
569
528
485
469
486
528
573
590
572
530
488
474
490
532
573
588
570
529
486
471
489
532
577
593
574
532
489
473
490
532
576
592
575
534
490
474
492
534
579
595
576
535
490
474
491
534
579
596
580
538
494
476
492
534
578
594
577
536
493
477
493
534
578
597
580
539
494
475
491
533
579
598
582
543
497
478
492
531
576
594
578
538
492
472
488
529
575
594
580
542
497
480
495
536
581
600
584
543
497
478
492
533
578
598
584
544
499
479
492
532
579
600
586
546
500
480
495
536
581
601
588
548
502
483
498
538
581
600
584
546
502
482
496
537
584
606
592
552
505
486
500
540
586
606
591
550
504
483
496
536
583
606
592
552
504
482
496
535
582
604
591
551
506
485
499
538
584
606
592
553
507
487
499
539
586
608
597
559
512
488
501
540
586
609
598
559
513
490
503
542
589
612
600
562
516
494
506
545
591
613
600
561
516
494
506
546
593
616
604
567
523
498
508
546
593
619
609
572
526
501
513
551
596
619
609
572
525
501
513
553
600
622
612
574
527
501
512
551
599
624
614
576
529
503
513
550
598
623
614
578
532
506
517
555
602
627
616
579
532
505
515
553
599
623
614
577
531
507
516
552
597
622
613
579
533
508
518
555
600
624
615
579
533
506
514
550
597
623
615
580
533
505
515
553
603
631
624
588
542
514
523
559
605
632
624
589
543
517
525
560
606
632
623
588
542
517
526
562
609
636
628
593
547
520
528
564
610
636
628
594
549
521
527
562
609
637
631
598
551
524
532
568
616
645
640
606
558
530
535
570
617
645
638
603
557
529
535
569
615
644
638
604
556
527
534
568
614
644
639
607
562
532
538
571
618
648
643
610
564
535
540
573
619
649
644
610
563
532
536
571
619
651
647
614
567
537
541
574
621
652
647
615
570
541
545
578
624
654
651
618
571
541
545
577
624
655
652
620
574
542
545
578
625
657
656
625
578
546
551
584
632
664
661
630
583
551
554
587
634
666
664
633
586
555
558
590
637
668
665
634
587
555
558
590
638
670
666
634
588
557
558
591
639
672
671
640
592
559
562
593
639
672
671
641
596
564
565
597
644
676
675
645
598
565
565
596
644
677
677
646
601
569
571
602
649
682
680
650
604
571
572
603
648
682
683
654
608
574
575
607
655
690
691
663
618
584
583
613
659
694
696
666
622
588
586
615
662
697
700
671
625
591
