498
516
533
541
534
514
497
489
494
510
526
534
527
511
495
488
496
515
532
541
534
518
503
496
505
523
539
547
540
523
506
497
503
521
536
543
537
519
503
494
500
518
535
542
537
520
504
498
506
525
541
548
540
522
505
497
502
518
533
540
531
514
498
490
496
511
527
536
530
514
497
489
496
514
530
540
533
515
497
490
496
513
530
538
530
511
494
486
495
513
530
539
530
511
494
486
493
510
528
537
530
514
497
490
496
514
531
537
530
512
495
487
495
512
529
537
530
512
494
485
492
510
527
535
528
511
495
488
497
515
530
536
528
512
497
489
495
513
531
539
531
515
499
492
501
519
535
541
532
512
496
490
498
517
534
543
538
521
504
497
503
522
538
543
533
515
499
493
501
520
536
543
533
513
496
490
498
517
534
541
533
515
499
492
498
516
533
541
532
515
499
492
501
520
538
545
535
515
499
492
499
516
532
539
531
514
498
493
500
517
534
542
535
518
501
494
501
519
534
540
531
513
496
490
496
513
530
537
530
513
499
494
502
521
540
548
539
521
503
496
503
521
539
548
540
520
502
496
504
523
540
546
538
520
502
495
503
522
539
545
535
518
502
496
504
521
538
544
535
516
499
493
502
519
535
543
534
516
499
492
499
518
535
541
532
513
497
491
500
518
533
540
532
513
495
487
495
513
529
537
529
511
496
491
498
516
533
539
531
513
496
490
499
518
536
544
536
516
499
492
500
516
532
538
530
512
496
490
499
518
534
540
530
512
496
489
496
515
531
538
530
513
497
490
499
517
534
540
529
511
496
490
498
515
532
540
533
515
498
493
500
518
535
542
532
514
499
493
502
521
539
544
532
513
496
490
498
516
534
542
533
515
500
494
505
524
539
545
536
519
503
496
503
520
537
544
536
517
501
494
502
518
533
540
531
513
497
491
500
519
537
544
535
516
500
494
501
518
534
540
533
515
499
493
501
519
535
542
534
516
499
491
500
519
534
541
531
514
498
492
500
517
533
540
532
515
499
493
501
519
536
543
533
516
499
493
501
519
536
542
531
512
496
491
500
518
534
539
529
512
496
490
498
516
532
538
529
512
497
493
503
522
537
541
531
513
498
492
502
522
538
544
535
517
501
494
502
518
532
537
527
509
496
492
500
518
534
540
530
512
498
493
503
521
536
541
532
515
500
494
503
521
536
540
530
514
499
495
504
524
542
548
538
521
506
500
508
525
542
547
536
519
504
499
510
527
541
546
537
519
504
498
505
523
538
544
536
518
502
495
502
518
535
543
533
514
499
493
503
521
537
542
532
515
500
494
502
521
536
541
529
510
495
490
500
517
533
538
528
510
497
492
503
522
536
541
530
512
497
491
501
519
534
537
525
506
492
488
498
517
533
540
530
512
497
492
501
519
534
539
529
512
496
491
500
518
534
540
529
509
494
489
499
518
534
538
526
509
496
491
500
518
532
537
527
509
495
492
504
522
538
542
531
514
500
495
504
523
540
545
535
519
504
499
510
529
545
550
539
521
506
502
512
530
546
551
541
523
509
505
515
532
546
549
537
519
503
497
506
525
542
547
537
518
503
497
507
526
541
546
536
518
503
499
510
530
546
551
539
519
502
496
505
523
540
546
537
519
503
499
509
528
545
550
540
522
506
501
510
529
543
547
536
516
498
491
501
521
537
542
530
512
497
493
504
523
539
543
531
513
497
493
503
521
536
539
528
510
496
493
503
521
535
539
527
508
494
490
501
519
534
539
530
512
497
492
503
521
536
541
530
512
498
494
504
523
538
541
529
512
498
494
504
523
540
545
534
515
499
496
507
527
541
545
532
512
496
491
503
523
540
545
535
516
502
497
508
525
540
544
533
514
499
495
505
525
541
547
536
517
501
496
505
523
538
542
531
512
497
494
506
525
540
544
533
514
498
493
503
522
537
542
532
514
499
494
505
525
541
545
534
514
498
494
505
524
540
544
533
515
501
496
505
524
537
539
527
508
493
489
501
520
535
538
528
510
495
490
500
519
533
536
526
510
497
493
503
522
538
540
527
506
491
486
496
515
531
535
523
502
489
486
496
514
529
533
521
503
489
486
498
518
533
535
523
503
490
486
497
517
534
539
527
509
496
493
505
525
540
543
530
510
497
494
506
525
540
545
534
516
501
496
507
526
541
545
532
512
496
493
506
526
543
546
533
512
498
496
508
528
544
546
534
515
500
497
510
529
543
545
533
515
500
496
509
528
543
548
536
517
501
497
507
523
536
540
528
510
496
493
505
526
541
545
532
513
498
494
505
525
539
541
528
509
495
493
506
524
538
541
528
508
493
490
503
523
539
543
531
511
496
492
504
522
536
538
525
507
494
491
503
522
537
539
526
506
491
487
499
518
532
534
521
503
491
489
503
522
537
538
526
508
495
493
504
524
538
541
529
510
496
493
505
523
537
538
525
506
492
489
502
522
538
541
526
507
493
489
501
521
537
540
527
508
494
491
502
522
536
538
525
507
494
492
506
526
540
542
530
512
501
498
508
524
538
541
529
510
497
495
507
527
542
545
533
516
502
497
506
525
541
543
530
510
497
495
507
526
540
542
527
506
492
489
502
521
536
538
525
506
493
492
505
523
536
537
524
504
490
488
501
519
532
534
523
504
492
491
504
521
535
537
526
509
495
493
505
524
536
537
523
505
493
491
503
522
535
536
525
506
492
488
502
521
535
535
521
502
489
488
501
521
535
537
523
503
488
486
499
520
536
538
524
505
491
489
502
520
532
533
519
501
489
488
502
522
536
535
522
505
494
492
506
524
537
536
520
501
489
489
502
521
534
537
524
505
493
491
504
521
533
533
519
501
488
486
499
520
535
536
523
503
489
486
498
516
529
531
516
497
486
487
501
519
532
533
520
501
488
487
500
518
534
537
524
507
494
491
503
522
534
535
522
503
491
488
501
521
535
536
521
501
488
485
499
519
532
533
520
502
489
488
501
520
531
532
519
501
489
487
500
519
531
533
520
500
488
487
501
521
534
534
519
502
491
489
502
523
536
536
522
502
489
489
504
522
535
537
522
504
493
493
508
527
539
539
524
504
491
490
505
524
537
539
525
505
492
492
505
523
537
538
524
506
494
493
506
526
541
542
527
506
492
491
504
524
536
537
524
506
496
495
508
526
538
537
523
504
492
490
503
521
534
536
523
505
491
489
502
522
535
536
523
505
493
492
508
529
543
543
529
508
494
493
507
527
540
540
526
508
497
497
511
529
544
544
529
509
496
494
507
526
539
541
527
507
494
494
507
525
538
538
523
504
491
490
504
524
538
539
524
504
493
493
506
523
536
536
523
505
493
493
508
527
538
538
524
505
492
492
506
526
539
540
526
507
494
493
507
526
540
540
527
508
496
496
511
532
544
544
529
510
497
495
508
527
540
540
526
507
494
494
508
527
540
539
525
507
493
492
506
526
537
538
524
506
494
494
507
526
538
538
524
505
493
494
510
530
544
545
532
514
501
500
514
533
546
545
530
510
497
496
510
531
544
545
531
512
500
500
514
532
545
545
531
513
500
500
515
534
548
549
535
517
504
502
515
533
546
546
530
511
498
497
513
532
544
543
529
510
497
495
508
528
540
539
525
507
494
493
509
529
542
540
525
506
495
496
511
529
540
538
523
505
496
496
510
530
545
546
530
510
496
495
508
527
539
539
524
505
494
496
511
530
544
544
529
511
500
501
517
537
548
547
531
513
504
505
518
536
546
544
529
510
500
502
515
532
545
544
529
510
499
499
515
532
543
540
524
505
493
494
508
527
540
538
523
504
493
494
509
527
539
537
522
504
494
495
509
528
541
540
525
504
491
492
508
528
540
539
524
505
492
492
507
525
536
535
520
501
489
490
506
526
540
539
523
504
492
492
504
522
536
535
520
503
492
493
507
524
535
534
519
501
490
490
504
523
535
535
520
502
490
491
506
525
536
534
518
497
486
488
504
523
535
534
520
502
491
494
509
528
539
537
521
503
493
495
509
527
540
539
523
505
495
496
512
531
543
541
525
506
494
495
509
528
540
538
523
505
495
497
514
532
543
540
524
506
495
496
510
527
539
537
523
505
494
494
510
530
542
538
522
503
491
491
505
524
536
535
520
503
494
495
509
526
538
536
522
505
494
495
512
531
543
541
526
507
496
497
512
531
542
540
525
507
497
498
513
530
541
537
520
500
490
492
507
526
538
538
525
506
493
493
507
524
533
530
514
496
486
489
506
524
535
532
516
499
490
492
507
526
538
535
519
502
492
494
508
526
538
536
520
502
491
493
509
526
537
535
520
501
489
491
506
525
536
534
518
499
489
492
509
528
541
539
522
503
492
493
509
527
539
535
519
502
492
493
509
528
539
536
521
504
495
499
516
533
544
541
525
506
496
497
513
531
543
540
523
504
495
497
513
532
544
542
525
507
497
500
516
533
544
541
525
508
497
498
514
533
544
540
523
505
495
498
513
531
542
541
526
506
495
496
511
529
540
537
522
504
495
498
515
534
544
538
521
502
492
494
508
526
537
533
516
497
488
491
504
522
534
530
513
495
485
488
504
523
534
531
516
500
491
493
507
525
537
533
517
499
490
493
508
525
534
529
513
497
489
493
510
528
537
532
515
496
486
490
507
526
537
533
517
500
491
493
509
527
539
538
524
505
495
497
513
532
543
539
520
501
491
493
510
528
539
535
519
500
489
490
505
523
534
531
516
499
492
496
514
533
544
540
525
508
497
499
515
532
541
536
520
502
492
495
511
530
539
534
518
500
489
492
509
529
540
535
519
501
492
495
511
529
540
535
519
502
494
498
513
530
539
536
520
502
492
494
511
530
540
536
520
503
492
494
511
530
542
538
522
504
494
497
514
531
540
535
516
497
487
490
505
523
534
530
513
497
489
493
508
526
536
530
514
497
488
492
507
523
534
532
517
502
492
495
510
527
536
532
514
495
486
491
510
529
539
534
518
501
491
494
509
528
539
533
515
497
489
492
509
526
536
532
516
498
490
494
510
528
538
534
518
501
491
494
510
526
535
531
515
497
489
493
509
528
538
533
517
499
489
493
509
528
537
531
515
498
490
495
512
530
539
534
518
500
491
497
514
531
541
536
520
503
495
498
514
533
543
539
521
502
492
496
514
532
543
537
520
503
493
496
513
532
541
535
518
500
490
495
512
531
542
537
518
501
492
495
510
529
538
532
514
497
489
494
510
528
539
535
519
501
493
497
515
533
543
539
522
505
495
497
512
530
540
533
514
498
491
496
514
533
544
540
524
507
497
502
518
533
541
534
518
502
496
501
517
534
542
534
517
499
491
498
515
533
543
538
520
502
493
497
514
531
540
533
516
498
489
494
510
528
539
534
517
499
490
494
510
528
538
533
516
499
491
496
511
528
539
533
515
498
491
497
513
530
539
533
517
499
490
495
511
529
539
534
518
502
494
500
517
535
546
540
523
504
496
501
518
536
545
540
523
505
496
501
519
536
544
537
521
505
497
502
519
537
547
542
526
507
497
501
518
536
547
542
525
506
497
502
520
538
547
541
525
508
499
504
522
539
549
545
528
511
501
505
522
538
547
540
524
506
497
502
519
535
543
537
519
501
495
501
518
535
544
537
519
502
493
499
517
535
542
534
516
499
492
499
517
533
541
534
518
503
495
500
518
537
545
539
521
503
494
500
518
534
542
536
518
501
494
501
518
533
540
534
516
499
490
495
513
531
540
535
518
501
493
499
516
533
541
534
517
501
492
499
516
533
540
533
516
499
493
499
515
531
540
535
518
501
492
497
514
529
538
532
515
500
492
498
516
536
546
540
523
508
499
503
519
535
543
536
519
501
492
500
519
535
542
535
518
501
494
500
518
535
543
536
519
503
496
503
520
535
544
537
519
502
494
499
516
534
543
538
521
504
496
502
519
535
544
538
521
506
498
503
520
537
544
539
522
505
498
504
521
538
545
538
521
505
498
504
521
537
544
536
519
501
492
498
515
532
540
534
516
501
494
499
516
534
543
536
518
500
490
497
516
534
542
535
517
500
494
11
544
541
526
509
501
504
521
538
546
542
527
509
502
506
523
540
548
542
526
507
498
501
518
534
542
539
524
508
499
503
518
533
540
535
518
502
495
501
518
536
546
541
525
508
500
504
521
538
546
541
525
508
500
503
518
535
543
538
520
503
495
498
513
530
541
536
519
502
495
499
515
532
541
536
520
505
497
501
518
536
547
542
525
507
498
500
516
534
543
540
524
509
500
502
517
533
542
537
521
505
498
503
518
533
541
535
517
499
492
497
514
530
538
533
516
501
493
497
514
531
539
532
515
499
492
496
512
529
538
534
517
501
493
496
512
528
535
529
513
496
487
490
504
521
529
524
508
491
484
490
507
524
533
529
514
497
488
492
508
527
537
532
516
501
493
498
515
532
539
533
517
501
494
500
516
533
541
534
517
500
491
496
510
526
535
530
516
500
490
493
509
526
534
529
514
499
492
497
514
531
540
534
518
501
494
499
516
532
541
535
518
502
494
499
515
532
540
535
519
504
497
502
517
531
539
535
521
505
497
503
520
537
545
538
519
500
493
497
514
531
539
532
516
501
495
501
519
534
541
535
519
503
496
502
518
534
541
534
517
501
495
503
520
534
540
533
517
501
493
499
516
534
543
535
518
501
492
497
513
532
541
532
514
498
491
497
514
529
536
528
512
497
491
498
516
532
540
533
518
503
496
502
518
534
542
536
520
504
496
501
518
534
540
532
514
498
491
496
515
532
539
532
515
499
492
498
513
529
537
530
513
498
492
499
517
533
539
532
515
499
493
498
515
530
536
530
516
500
494
500
518
535
542
534
515
497
489
496
514
532
539
532
515
499
492
498
515
531
538
531
512
497
492
498
514
528
534
527
511
498
492
498
515
529
536
530
513
498
493
500
517
533
540
531
512
496
488
494
510
526
534
527
510
496
490
498
516
532
538
531
513
497
493
501
519
535
541
532
514
498
493
501
519
535
540
531
515
500
494
500
515
530
537
530
513
497
491
497
514
531
538
530
512
497
493
502
520
534
537
529
511
496
490
497
514
529
536
529
512
497
493
500
517
532
538
530
513
499
493
500
516
531
537
528
509
492
485
492
507
523
530
524
509
495
491
499
516
531
536
527
509
492
484
491
508
526
536
529
512
498
493
500
517
530
534
524
506
491
485
493
509
526
531
523
506
491
485
492
510
526
532
524
507
492
486
496
513
528
534
526
507
493
487
495
515
532
540
532
516
501
495
502
519
531
535
526
509
495
490
499
518
534
540
531
512
495
492
501
517
532
538
530
513
498
494
502
518
534
539
529
510
493
485
492
511
528
534
524
506
493
489
498
517
532
537
527
509
495
492
501
519
533
537
528
509
494
489
496
513
529
536
528
510
495
490
499
517
532
537
526
507
491
486
495
515
531
536
526
508
494
488
495
511
526
532
522
505
492
488
496
513
528
534
525
508
494
491
501
519
533
539
529
512
498
493
501
518
532
537
528
511
498
495
505
523
538
543
533
515
500
496
505
522
536
539
528
510
498
496
506
524
537
542
532
516
502
498
508
526
541
545
536
519
505
500
509
528
544
549
540
521
504
498
509
528
544
548
538
519
503
499
508
525
539
544
533
516
502
499
508
524
536
539
529
512
498
493
504
522
536
540
531
514
501
496
505
524
538
544
534
515
499
494
503
520
534
538
527
509
495
490
500
519
533
537
526
509
498
497
507
524
538
541
530
513
499
494
503
522
536
540
532
516
501
496
505
522
536
540
530
511
497
494
505
523
537
542
531
511
496
491
501
518
532
536
525
507
494
491
501
520
534
536
525
509
497
493
502
518
531
535
526
509
497
494
503
520
534
537
526
507
493
488
497
517
532
536
525
507
494
492
504
524
538
540
530
513
500
496
507
526
540
541
529
509
496
492
503
520
533
537
526
509
496
492
503
520
533
538
528
510
496
491
501
519
535
538
527
508
495
493
503
521
534
536
523
505
494
492
503
522
535
536
525
508
495
492
502
519
534
537
527
510
496
493
504
521
534
537
525
507
494
490
500
518
532
535
523
503
490
489
501
519
533
536
525
506
494
492
503
522
536
538
526
506
493
491
503
522
536
540
529
513
500
497
507
523
536
540
530
512
498
494
505
524
537
538
527
510
498
496
507
525
538
541
530
510
497
495
506
526
537
538
526
509
497
494
505
524
536
537
524
508
497
497
508
524
537
540
528
511
498
493
503
521
535
538
526
508
496
493
504
521
535
540
528
511
499
497
509
527
541
544
531
513
501
499
511
529
542
543
530
514
501
499
509
527
538
540
527
508
496
494
505
523
536
540
528
510
496
493
505
524
539
541
527
507
494
493
506
525
538
539
526
508
496
494
507
525
538
538
525
508
498
497
510
528
540
542
529
511
498
497
509
527
539
540
527
510
496
492
503
522
536
537
523
504
490
487
499
518
534
537
525
508
496
494
505
523
536
538
526
507
495
494
505
524
538
541
530
511
498
495
507
524
537
541
529
511
498
497
510
528
542
543
531
513
501
499
512
530
542
542
527
508
494
491
504
524
537
538
526
510
499
496
507
526
538
538
524
505
493
492
506
525
538
540
527
509
497
495
507
526
538
538
525
507
496
495
507
524
536
537
525
507
495
494
506
525
538
539
525
507
496
495
508
528
540
540
528
509
497
496
510
528
538
537
523
506
495
494
506
524
537
539
526
507
496
495
509
527
538
538
524
505
493
492
504
522
532
533
520
503
491
490
503
522
536
538
524
504
491
491
504
521
532
534
522
505
493
493
505
524
537
538
526
508
496
495
508
526
539
538
523
503
491
491
505
524
537
538
525
507
495
494
507
525
538
537
525
506
495
495
508
526
538
538
525
507
495
493
505
523
534
534
521
503
491
488
501
520
534
534
519
501
490
492
505
523
535
535
521
503
493
493
508
528
539
537
521
502
490
489
502
520
531
530
517
500
491
491
505
524
535
533
518
501
491
492
504
522
535
535
522
503
492
491
505
524
536
535
520
501
490
491
506
525
537
536
521
502
491
493
509
527
537
537
522
503
491
491
504
522
533
531
517
499
490
492
507
525
535
534
521
504
492
492
506
524
534
532
518
500
489
491
505
524
533
531
516
499
490
492
507
527
537
536
521
503
492
493
508
526
537
536
522
504
493
494
508
527
537
534
519
501
491
492
505
523
534
534
520
501
492
494
507
526
539
537
523
504
493
493
505
524
536
536
521
503
492
492
505
521
532
531
516
498
487
489
504
524
535
535
521
504
494
496
510
528
539
537
523
505
494
497
513
531
542
540
525
506
496
495
508
528
540
539
523
505
495
494
507
525
538
537
523
506
498
502
517
535
544
541
525
507
497
498
512
530
539
537
523
507
498
500
515
532
541
538
523
505
496
497
512
530
541
537
523
506
497
499
513
530
539
536
520
502
493
495
510
527
538
537
522
505
494
496
513
532
542
538
522
504
495
496
510
527
537
534
520
504
496
499
513
531
540
537
523
506
498
501
516
532
540
535
517
499
490
493
510
530
540
536
519
503
493
495
508
525
534
529
513
495
486
488
503
521
531
529
514
499
491
493
509
528
541
539
522
504
495
497
512
529
539
535
519
501
491
493
509
528
539
536
520
501
492
495
511
529
539
536
520
501
493
496
511
529
539
534
519
500
491
495
511
530
541
539
524
507
498
500
515
533
543
540
524
507
498
499
514
532
543
540
525
508
498
500
516
533
541
535
519
502
493
497
512
529
540
536
522
506
496
499
515
531
540
536
520
503
495
499
515
532
542
539
523
505
496
498
515
532
542
538
522
504
494
497
513
531
540
536
518
500
493
498
514
531
540
536
520
502
492
496
513
531
541
536
521
505
496
501
517
534
542
535
518
501
494
496
511
528
538
535
520
503
494
497
511
528
538
535
519
502
494
496
512
529
538
533
517
499
491
495
510
528
538
536
521
503
494
498
515
531
540
536
519
502
493
498
516
533
542
538
522
505
496
499
514
530
540
534
516
497
488
492
508
526
536
530
513
496
489
494
509
526
533
529
513
497
491
496
514
531
539
533
517
500
490
494
510
528
537
532
516
501
493
497
513
531
538
530
512
496
488
493
509
528
538
532
515
496
486
489
506
524
533
528
512
496
489
494
511
526
533
527
512
496
488
493
508
525
535
531
516
500
491
495
510
526
535
529
512
495
486
491
507
524
532
526
510
495
488
493
509
524
530
526
511
496
490
495
511
528
537
531
515
500
493
498
513
528
537
532
516
499
493
498
513
530
539
533
516
500
494
499
515
533
542
537
522
504
494
499
515
529
536
530
514
498
492
497
514
530
539
532
515
498
491
496
514
532
541
535
518
501
493
499
515
533
542
536
517
500
492
495
512
531
542
535
517
499
490
496
514
531
538
533
519
503
496
503
521
537
544
537
519
503
495
502
518
536
543
537
519
501
492
496
512
529
537
531
512
495
487
493
510
529
539
532
514
495
486
494
512
531
540
534
515
499
492
500
518
535
543
536
519
502
494
501
517
534
544
539
523
506
498
502
519
536
543
537
520
501
492
497
513
531
540
534
517
500
492
497
513
529
537
531
514
498
492
499
515
530
538
531
513
497
491
497
513
528
537
533
519
504
496
500
515
528
534
527
510
496
490
497
514
530
538
532
516
501
493
500
518
536
544
536
518
500
493
499
516
535
543
537
520
504
496
500
516
531
538
531
516
500
492
498
516
533
541
533
515
498
491
498
515
531
540
535
520
504
497
503
520
535
542
533
515
499
493
500
516
533
541
534
517
500
493
499
516
533
542
535
517
501
495
502
518
534
542
535
518
502
494
500
519
535
543
537
521
503
495
502
520
538
547
540
523
507
500
507
526
543
550
540
522
506
501
509
526
543
548
541
524
507
501
508
526
541
547
539
523
507
501
508
524
540
548
541
526
510
504
511
528
543
549
541
525
510
504
513
531
548
555
546
527
509
502
511
529
545
551
543
527
513
507
515
533
549
556
547
531
517
510
518
536
553
561
555
538
521
514
521
537
552
559
551
535
521
516
525
543
561
568
562
545
529
523
530
546
562
568
559
542
527
524
535
553
570
579
572
558
546
542
552
571
590
600
596
583
571
566
573
590
606
611
602
585
569
560
564
578
591
593
579
556
536
525
528
540
551
553
540
518
500
491
497
512
525
527
516
498
484
478
486
503
518
522
510
492
479
476
487
506
522
526
515
495
482
481
496
519
534
537
524
504
493
497
514
537
552
553
537
516
504
506
524
547
559
557
538
516
504
510
529
551
565
564
545
521
506
509
527
549
561
558
536
512
499
504
524
547
559
553
532
507
492
495
515
538
550
543
520
495
483
490
512
537
547
539
512
484
473
482
507
532
541
529
503
489
523
621
762
914
1023
1023
1023
1023
1023
1023
1023
1023
1023
1023
1023
1023
1023
1023
1023
1023
1023
1023
1023
1023
1023
1023
1023
1023
1023
1023
1023
1023
1023
1023
1023
1023
1023
1023
1023
1023
1023
1023
1023
1023
1023
1023
1023
1023
1023
1023
1023
1023
1023
1023
1023
1023
1023
1023
1023
1023
899
477
253
138
76
43
24
14
9
6
4
3
2
2
129
818
705
356
186
100
54
30
186
868
710
359
188
100
54
30
135
800
665
336
176
94
50
28
393
1022
1023
575
297
158
85
47
581
1023
1023
693
359
190
102
57
691
1023
1023
819
425
224
121
81
769
1023
1023
884
460
242
130
81
756
1023
1023
801
416
220
118
88
790
1023
1023
805
418
221
119
183
903
1023
1023
877
457
240
130
259
955
1023
1023
1023
559
294
157
279
966
1023
1023
1023
636
334
178
157
838
1023
1023
1023
717
376
200
215
779
1023
1023
1023
1023
942
1023
1023
1023
1023
1023
1023
1023
1023
1023
1023
1023
1023
1023
1023
1023
1023
1023
1023
1023
1023
1023
1023
1023
1023
1023
1023
1023
1023
1023
1023
1023
1023
1023
1023
1023
1023
1023
1023
1023
1023
1023
1023
1023
1023
1023
1023
1023
1023
1023
1023
1023
1023
1023
1023
1023
1023
1023
1023
1023
1023
1023
1023
1023
1023
1023
1023
1023
1023
1023
1023
1023
1023
1023
1023
1023
1023
1023
1023
1023
1023
1023
1023
1023
1023
1023
1023
1023
1023
1023
1023
1023
1023
1023
1023
1023
1023
1023
1023
1023
1023
1023
1023
1023
1023
1023
1023
1023
1023
1023
1023
1023
1023
1023
1023
1023
1023
1023
1023
1023
1023
1023
1023
1023
1023
1023
1023
1023
1023
1023
1023
1023
1023
1023
1023
1023
1023
1023
1023
1023
1023
1023
1023
1023
1023
1023
1023
1023
1023
1023
1023
1023
1023
1023
1023
1023
1023
1023
1023
1023
1023
1023
1023
1023
1023
1023
1023
1023
1023
1023
1023
1023
1023
1023
1023
1023
1023
1023
1023
1023
1023
1023
1023
1023
1023
1023
1023
1023
1023
1023
1023
1023
1023
1023
1023
1023
1023
1023
1023
1023
1023
1023
1023
1023
1023
1023
1023
1023
1023
1023
1023
1023
1023
1023
1023
1023
1023
1023
1023
1023
1023
1023
1023
1023
1023
1023
1023
1023
1023
1023
1023
1023
1023
1023
1023
1023
1023
1023
1023
1023
1023
1023
1023
1023
1023
1023
1023
1023
1023
1023
1023
1023
1023
1023
1023
1023
1023
1023
1023
1023
1023
1023
1023
1023
1023
1023
1023
1023
1023
1023
1023
1023
1023
1023
1023
1023
1023
1023
1023
1023
1023
1023
1023
1023
1023
1023
1023
1023
1023
1023
1023
1023
1023
1023
1023
1023
1023
1023
1023
1023
1023
1023
1000
819
641
459
275
149
82
46
26
16
10
6
4
3
2
2
2
2
1
1
1
1
1
1
1
1
1
1
1
1
1
1
1
1
1
1
1
1
1
1
1
1
1
1
1
1
1
1
1
1
1
1
1
1
1
1
1
1
1
1
1
1
1
1
1
1
1
1
1
1
1
1
1
1
1
1
1
1
1
1
1
1
0
1
1
1
1
1
1
1
1
1
1
1
1
1
1
1
1
1
0
1
1
1
1
1
0
1
1
0
1
1
1
1
1
1
1
1
1
1
1
1
1
1
1
1
0
1
1
1
1
1
1
0
0
1
1
1
1
1
1
1
1
1
1
1
0
1
1
1
1
1
1
1
0
1
1
1
0
1
1
1
1
1
1
1
1
1
1
1
1
1
1
1
1
0
1
0
1
1
1
1
1
0
0
1
1
1
0
0
1
0
1
1
1
1
1
1
0
1
1
1
1
1
1
1
1
1
1
1
1
1
1
1
0
1
1
1
0
1
0
1
1
1
1
0
1
1
0
1
1
1
1
0
1
1
1
1
1
1
1
1
1
1
1
1
1
1
1
1
1
0
1
1
0
1
1
0
1
0
1
0
0
0
1
1
1
1
1
1
1
1
0
0
0
1
0
1
0
0
1
1
0
1
1
0
1
1
1
1
1
1
1
1
1
1
1
0
1
1
1
1
1
1
1
1
1
1
1
1
1
0
0
1
1
0
1
1
1
0
1
0
1
0
1
1
1
1
0
1
1
1
0
1
0
1
1
1
1
0
1
0
0
1
1
0
1
1
1
1
0
1
0
1
0
1
1
1
0
0
1
1
1
1
1
1
0
1
1
0
1
1
1
1
1
1
1
0
1
1
1
1
0
1
1
1
0
1
1
1
1
0
0
1
1
1
1
1
1
0
1
1
1
1
1
1
1
0
1
1
1
1
1
1
1
1
0
1
1
1
1
1
1
1
1
1
1
0
1
1
1
1
1
1
1
1
1
1
1
1
0
1
1
0
0
0
1
1
0
1
0
0
1
1
1
1
0
1
1
1
1
1
1
1
1
0
1
1
1
1
1
1
1
1
1
0
1
1
1
1
1
1
1
1
0
1
1
0
1
1
1
0
1
1
1
1
1
1
1
1
1
1
1
1
1
1
0
1
1
1
0
1
1
0
1
1
27
160
304
428
558
728
947
1023
1023
1023
1023
1023
1023
1023
1023
1023
1023
1023
1023
1023
1023
1023
1023
1023
1023
1023
1023
1023
1023
1023
1023
1023
1023
1023
1023
1023
1023
1023
1023
1023
1023
1023
1023
1023
1023
1023
1023
1023
1023
1023
1023
1023
1023
1023
1023
1023
1023
1023
1023
1023
1023
1023
1023
1023
1023
1023
1023
1023
1023
1023
1023
1023
1023
1023
1023
1023
1023
1023
1023
1023
1023
1023
1023
1023
1023
1023
1023
1023
1023
1023
1023
1023
1023
1023
1023
1023
1023
1023
1023
1023
1023
1023
1023
1023
1023
1023
1023
1023
1023
1023
1023
1023
1023
1023
1023
1023
1023
1023
1023
1023
1023
1023
1023
1023
1023
1023
1023
1023
1023
1023
1023
1023
1023
1023
1023
1023
1023
1023
1023
1023
1023
1023
1023
1023
1023
1023
1023
1023
1023
1023
1023
1023
1023
1023
1023
1023
1023
1023
1023
1023
1023
1023
1023
1023
1023
1023
1023
1023
1023
1023
1023
1023
1023
1023
1023
1023
1023
1023
1023
1023
1023
1023
1023
1023
1023
1023
1023
1023
1023
1023
1023
1023
1023
1023
1023
1023
1023
1023
1023
1023
1023
1023
1023
1023
1023
1023
1023
1023
1023
1023
1023
1023
1023
1023
1023
1023
1023
1023
1023
1023
1023
1023
1023
1023
1023
1023
1023
1023
1023
1023
1023
1023
1023
1023
1023
1023
1023
1023
1023
1023
1023
1023
1023
1023
1023
1023
1023
1023
1023
1023
1023
1023
1023
1023
1023
1023
1023
1023
1023
1023
1023
1023
1023
1023
1023
1023
1023
1023
1023
1023
1023
1023
1023
1023
1023
1023
1023
1023
1023
1023
1023
1023
1023
1023
1023
1023
1023
1023
1023
1023
1023
1023
1023
1023
1023
1023
1023
1023
1023
1023
1023
1023
1023
1023
1023
1023
1023
1023
1023
1023
1023
1023
1023
1023
1023
1023
1023
1023
1023
1023
1023
1023
1023
1023
1023
1023
1023
1023
1023
1023
1023
1023
1023
1023
1023
1023
1023
1023
1023
1023
1023
1023
1023
1023
1023
1023
1023
1023
1023
1023
1023
1023
1023
1023
1023
1023
1023
1023
1023
1023
1023
1023
1023
1023
1023
1023
1023
1023
1023
1023
1023
1023
1023
1023
1023
1023
1023
1023
1023
1023
1023
1023
1023
1023
1023
1023
1023
1023
1023
1023
1023
1023
1023
1023
1023
1023
1023
1023
1023
1023
1023
1023
1023
1023
1023
1023
1023
1023
1023
1023
1023
1023
1023
1023
1023
1023
1023
1023
1023
1023
1023
1023
1023
1023
1023
1023
1023
1023
1023
1023
1023
1023
943
504
272
148
82
46
26
16
10
6
4
3
3
2
2
1
1
1
1
1
1
1
1
1
1
1
1
1
1
1
1
1
1
1
1
1
1
1
1
1
1
1
1
1
1
1
1
1
1
1
1
1
1
1
1
1
1
1
1
1
1
1
1
1
1
1
1
1
1
1
1
1
1
1
1
1
1
1
1
1
0
1
1
1
1
1
1
1
1
1
1
1
1
1
1
1
1
1
1
1
1
0
1
1
1
1
1
0
1
1
1
1
0
0
1
1
1
1
1
1
1
1
1
1
1
1
1
1
1
1
1
1
1
1
1
1
1
1
1
1
1
1
1
1
1
1
0
1
1
1
1
1
1
1
0
1
0
1
1
1
1
1
1
1
1
1
1
1
1
1
1
0
1
0
1
1
0
1
1
1
0
0
1
1
1
1
1
1
0
1
1
1
1
1
1
1
1
1
1
1
1
0
1
1
1
1
1
1
1
1
1
1
1
1
1
0
0
1
0
1
0
1
1
1
1
1
1
1
1
1
1
1
1
1
0
1
1
1
1
1
1
1
0
1
1
0
1
1
1
1
1
1
1
1
1
1
1
1
0
1
1
1
1
1
1
1
1
1
1
1
1
1
1
1
1
1
1
1
1
1
1
0
1
1
1
1
1
1
1
1
1
1
0
1
1
1
1
1
1
1
1
468
1023
1023
1023
780
872
1023
1023
1023
1023
1023
1023
1023
1023
1023
1023
1023
1023
1023
1023
1023
1023
1023
1023
1023
1023
1023
1023
1023
1023
1023
1023
1023
1023
1023
1023
1023
1023
1023
1023
1023
1023
1023
1023
1023
1023
1023
1023
1023
1023
1023
1023
1023
1023
1023
1023
1023
1023
1023
1023
1023
1023
1023
1023
1023
1023
1023
1023
1023
1023
1023
1023
1023
1023
1023
1023
1023
1023
1023
1023
1023
1023
1023
1023
1023
1023
1023
1023
1023
1023
1023
1023
1023
1023
1023
1023
1023
1023
1023
1023
1023
1023
1023
1023
1023
1023
1023
1023
1023
1023
1023
1023
1023
1023
1023
1023
1023
1023
1023
1023
1023
1023
1023
1023
1023
1023
1023
1023
1023
1023
1023
1023
1023
1023
1023
1023
1023
1023
1023
1023
1023
1023
1023
1023
1023
1023
1023
1023
1023
1023
1023
1023
1023
1023
1023
1023
1023
1023
1023
1023
1023
1023
1023
1023
1023
1023
1023
1023
1023
1023
1023
1023
1023
1023
1023
1023
1023
1023
1023
1023
1023
1023
1023
1023
1023
1023
1023
1023
1023
1023
1023
993
827
615
374
202
111
62
35
20
12
8
5
4
3
2
2
2
1
1
1
1
1
1
1
1
1
1
1
1
1
1
1
1
1
1
1
1
1
1
1
1
1
1
1
1
1
1
1
1
1
1
1
1
1
1
1
1
1
1
1
1
1
1
1
1
1
1
1
1
1
1
1
1
1
1
1
1
1
0
1
1
1
1
1
1
1
1
1
1
1
1
1
1
1
1
1
1
1
1
1
1
1
1
0
1
1
1
1
1
1
1
1
1
1
0
1
1
1
0
1
1
1
1
1
1
1
1
1
1
1
1
1
1
1
1
0
1
1
1
1
1
1
1
1
0
1
1
1
1
1
1
0
1
1
1
1
1
1
1
1
1
1
1
1
1
1
1
1
1
1
1
1
1
1
1
1
1
1
1
1
0
0
0
1
1
0
1
1
1
1
1
1
1
1
1
1
1
1
1
1
1
1
120
364
627
890
1023
1023
1023
1023
1023
1023
1023
1023
1023
1023
1023
1023
1023
1023
1023
1023
1023
1023
1023
1023
1023
1023
1023
1023
1023
1023
1023
1023
1023
1023
1023
1023
1023
1023
1023
1023
1023
1023
1023
1023
1023
1023
1023
1023
1023
1023
1023
1023
977
934
901
863
814
763
723
700
697
714
724
730
728
724
732
749
771
775
770
763
755
736
704
680
669
665
659
643
615
583
549
523
505
487
468
433
385
324
269
211
145
88
49
27
16
9
6
4
3
2
2
1
1
1
1
1
1
1
1
1
1
1
1
1
1
1
1
1
1
1
1
1
1
1
1
1
1
1
1
1
1
1
1
1
1
1
1
1
1
1
1
1
1
1
1
1
1
1
1
1
1
1
1
1
1
1
1
1
1
1
1
1
1
1
1
1
1
0
1
1
1
1
1
1
1
1
1
1
0
1
1
1
1
1
0
1
1
0
1
1
1
1
1
0
1
0
1
1
0
1
1
1
1
1
1
1
1
1
1
1
1
1
1
1
1
1
1
1
1
1
1
1
1
1
0
1
1
1
1
1
1
1
1
1
1
1
1
1
1
1
1
1
1
1
1
1
1
1
1
1
1
1
1
1
1
0
1
1
1
1
1
1
1
1
1
1
1
1
0
1
1
1
1
1
1
1
1
1
1
1
1
1
1
1
1
1
1
1
1
1
1
1
1
1
1
1
1
1
1
1
0
1
1
1
1
0
1
1
1
0
1
1
1
1
0
1
1
0
0
1
1
1
1
1
0
1
1
0
1
1
1
0
1
1
1
1
1
1
1
1
1
0
1
1
0
1
1
1
1
1
1
1
1
1
1
1
1
1
1
1
0
1
1
1
1
1
1
0
0
0
0
0
0
1
0
1
0
1
0
1
0
1
1
1
1
1
0
1
1
1
1
1
1
1
1
1
1
0
1
1
1
1
1
1
1
1
0
1
0
1
1
1
0
0
1
1
1
1
1
1
1
0
1
1
1
1
1
1
1
0
1
1
1
0
1
1
0
1
1
1
0
1
1
1
1
1
0
1
0
1
1
1
1
1
1
0
0
1
1
1
1
1
1
1
1
1
1
1
1
1
1
1
1
1
1
0
1
1
1
1
0
1
1
0
1
1
1
1
0
1
1
1
1
1
0
1
1
0
1
1
1
1
1
0
1
0
0
0
0
0
1
0
1
1
1
1
1
1
0
1
1
1
0
1
1
0
1
1
0
1
1
1
0
1
1
1
1
1
1
1
0
1
1
0
0
1
0
1
1
0
0
0
0
1
1
1
1
0
1
1
0
1
1
1
1
1
0
0
1
0
1
0
1
1
1
1
1
1
1
1
1
0
0
1
1
1
1
1
1
1
1
0
1
1
1
1
1
1
1
1
1
1
1
1
1
1
1
1
1
1
1
1
1
1
1
1
1
1
1
1
1
1
1
1
1
1
1
1
1
1
1
1
1
1
1
1
1
1
1
1
1
1
1
1
33
83
136
175
183
161
125
79
44
23
12
8
6
6
7
7
9
10
11
12
13
15
18
27
28
26
38
59
74
78
83
90
89
79
71
65
73
99
127
150
160
158
156
167
179
182
182
188
192
193
195
209
219
239
261
268
270
265
267
274
283
292
303
316
314
302
295
303
328
358
367
372
375
369
368
373
378
393
409
427
416
397
377
390
426
450
459
464
465
457
450
441
432
433
432
428
428
421
411
407
409
422
427
421
410
413
415
429
446
452
461
462
455
462
476
481
481
473
464
457
448
427
390
352
332
324
324
311
286
267
252
237
226
223
212
198
189
178
163
171
186
206
233
245
255
265
280
290
299
312
340
376
396
403
396
402
422
448
457
467
474
465
465
474
485
505
514
516
521
537
538
522
531
535
542
548
542
518
506
515
522
527
510
491
482
494
526
544
549
558
591
624
635
634
642
664
687
697
704
712
740
777
811
835
860
886
926
955
977
991
980
982
1005
1023
1023
1023
1023
1023
1023
1023
1023
1023
1023
1023
1023
1023
1023
1023
1023
1023
1023
1023
1023
1023
1023
1023
1023
1023
1023
1023
1023
1023
1023
1023
1023
1023
1023
1023
1023
1023
1023
1023
1023
1023
1023
1023
1023
1023
1023
1023
1023
1023
1023
1023
1023
1023
1023
1023
1023
1023
1023
1023
1023
1023
1023
1023
1023
1023
1023
1023
1023
1023
1023
1023
1023
1023
1023
1023
1023
1023
1023
1023
1023
1023
1023
1023
1023
1023
1023
1023
1023
1023
1023
1023
1023
1023
1023
1023
1023
1023
1023
1023
1023
1023
1023
1023
1023
1023
1023
1023
1023
1023
1023
1023
1023
1023
1023
1023
1023
1023
1023
1023
1023
1023
1023
1023
1023
1023
1023
1023
1023
1023
1023
1023
1023
1023
1023
1023
1023
1023
1023
1023
1023
1023
1023
1023
1023
1023
1023
1023
1023
1023
1023
1023
1023
1023
1023
1023
1023
1023
1023
1023
1023
1023
1023
1023
1023
1023
1023
1023
1023
1023
1023
1023
1023
1023
1023
1023
1023
1023
1023
1023
1023
1023
1023
1023
1023
1023
1023
1023
1023
1023
1023
1023
1023
1023
1023
1023
1023
1023
1023
1023
1023
1023
1023
1023
1023
1023
1023
1023
1023
1023
1023
1023
1023
1023
1023
1023
1023
1023
1023
1023
1023
1023
1023
1023
1023
1023
1023
1023
1023
1023
1023
1023
1023
1023
1023
1023
1023
1023
1023
1023
1023
1023
1023
1023
1023
1023
1023
1023
1023
1023
1023
1023
1023
1023
1023
1023
1023
1023
1023
1023
1023
1023
1023
1023
1023
1023
1023
1023
1023
1023
1023
1023
1023
1023
1023
1023
1023
1023
1023
1023
1023
1023
1023
1023
1023
1023
1023
1023
1023
1023
1023
1023
1023
1023
1023
1023
1023
1023
1023
1023
1023
1023
1023
1023
1023
1023
1023
1023
1023
1023
1023
1023
1023
1023
1023
1023
1023
1023
1023
1023
1023
1023
1023
1023
1023
1023
1023
1023
1023
1023
1023
1023
1023
1023
1023
1023
1023
1023
1023
1023
1023
1023
1023
1023
1023
1023
1023
1023
1023
1023
1023
1023
1023
1023
1023
1023
1023
1023
1023
1023
1023
1023
1023
1023
1023
1023
1023
1023
1023
1023
1023
1023
1023
1023
1023
1023
1023
1023
1023
1023
1023
1023
1023
1023
1023
1023
1023
1023
1023
1023
1023
1023
1023
1023
1023
1023
1023
1023
1023
1023
1023
1023
1023
1023
1023
1023
1023
1023
1023
1023
1023
1023
1023
1023
1023
1023
1023
1023
1023
1023
1023
1023
1023
1023
1023
1023
1023
1023
1023
1023
1023
1023
1023
1023
1023
1023
1023
1023
1023
1023
1023
1023
1023
1023
1023
1023
1023
1023
1023
1023
1023
1023
1023
1023
1023
1023
1023
1023
1023
1023
1023
1023
1023
1023
1023
1023
1023
1023
1023
1023
1023
1023
1023
1023
1023
1023
1023
1023
1023
1023
1023
1023
1023
1023
1023
1023
1023
1023
1023
1023
1023
1023
1023
1023
1023
1023
1023
1023
1023
1023
1023
1023
1023
1023
1023
1023
1023
1023
1023
1023
1023
1023
1023
1023
1023
1023
1023
1023
1023
1023
1023
1023
1023
1023
1023
1023
1023
1023
1023
1023
1023
1023
1023
1023
1023
1023
1023
1023
1023
1023
1023
1023
1023
1023
1023
1023
1023
1023
1023
1023
1023
1023
1023
1023
1023
1023
1023
1023
1023
1023
1023
1023
1023
1023
1023
1023
1023
1023
1023
1023
1023
1023
1023
1023
1023
1023
1023
1023
1023
1023
1023
1023
1023
1023
1023
1023
1023
1023
1023
1023
1023
1023
1023
1023
1023
1023
1023
1023
1023
1023
1023
1023
1023
1023
1023
1023
1023
1023
1023
1023
1023
1023
1023
1023
1023
1023
1023
1023
1023
1023
1023
1023
1023
1023
1023
1023
1023
1023
1023
1023
1023
1023
1023
1023
1023
1023
1023
1023
1023
1023
1023
1023
1023
1023
1023
1023
1023
1023
1023
1023
1023
1023
1023
1023
1023
1023
1023
1023
1023
1023
1023
1023
1023
1023
1023
1023
1023
1023
1023
1023
1023
1023
1023
1023
1023
1023
1023
1023
1023
1023
1023
1023
1023
1023
1023
1023
1023
1023
1023
1023
1023
1023
1023
1023
1023
1023
1023
1023
1023
1023
1023
1023
1013
1016
1008
992
981
988
1009
1023
1023
1005
994
997
1018
1023
1023
1023
1023
1023
1023
1023
1023
1023
1023
1023
1022
1006
1021
1023
1023
1023
1023
1023
1023
1023
1023
1023
1023
1023
1023
1023
1016
1022
1023
1023
1023
1023
1023
1023
1023
1009
998
1014
1015
1012
1020
1013
1001
1005
1019
1023
1023
1023
1019
1001
1002
1002
1014
1023
1023
1023
1023
1023
1020
1020
1022
1023
1023
1018
999
981
979
988
1001
986
980
984
980
980
982
972
961
955
952
957
971
986
978
960
957
966
969
967
962
958
953
952
949
953
969
982
974
962
940
930
945
967
980
982
962
952
951
946
944
931
926
928
940
950
947
955
949
944
937
921
922
924
932
940
935
926
931
926
904
894
890
893
894
900
887
884
888
887
885
876
870
873
867
867
873
867
863
864
870
869
875
886
881
867
846
848
848
841
842
842
839
841
838
847
859
861
844
842
849
853
860
867
877
871
867
856
836
835
833
832
831
822
830
849
853
838
836
847
843
834
827
821
810
807
801
794
795
796
800
813
817
794
776
780
793
793
792
797
781
766
764
776
820
873
927
993
1023
1023
1023
1023
1023
1023
972
901
825
762
727
696
666
649
640
642
639
642
652
676
701
713
718
726
710
707
719
730
732
722
714
714
712
711
704
695
690
686
677
684
696
686
672
662
651
657
670
673
671
667
664
663
665
676
682
689
686
664
653
662
672
673
678
690
685
661
659
661
666
676
673
659
656
665
668
670
673
673
677
677
677
679
676
673
673
679
685
691
699
694
693
704
718
727
714
699
681
671
672
680
693
710
714
704
705
707
694
697
702
703
698
698
688
669
656
656
668
682
698
696
671
647
633
631
615
589
578
571
564
561
560
568
580
574
554
533
528
535
528
519
509
517
542
544
536
537
528
518
504
492
496
502
514
530
519
521
516
498
506
513
512
500
502
512
524
534
533
529
515
515
524
532
545
543
541
542
555
558
546
531
528
528
544
551
528
517
531
535
544
557
552
547
540
521
515
532
543
552
558
560
556
544
532
538
540
544
538
531
505
488
496
515
529
541
547
525
511
518
534
533
534
528
519
508
508
508
510
509
510
509
515
535
536
523
509
491
485
490
500
503
513
517
505
494
497
505
500
501
499
492
477
475
483
497
510
508
506
506
503
504
522
527
512
494
485
474
475
485
488
493
497
505
516
505
479
464
467
478
487
488
490
485
473
478
478
482
488
487
490
494
488
483
487
493
506
525
523
510
493
473
470
494
499
482
467
463
460
475
472
467
475
479
478
483
485
487
493
499
495
479
477
479
478
470
465
466
482
497
503
497
496
493
499
504
510
507
503
504
501
507
515
524
520
519
512
509
508
504
502
498
491
482
465
465
478
486
481
466
447
454
472
468
456
458
469
478
483
480
482
504
558
634
716
791
844
875
873
830
778
714
632
546
470
415
374
349
341
354
381
404
407
431
445
438
428
438
444
447
449
452
446
441
442
448
447
428
423
424
434
442
446
449
435
424
435
435
444
449
443
449
453
451
459
474
485
488
481
473
471
472
466
468
462
453
458
460
460
474
493
508
502
472
456
463
476
478
480
479
479
479
479
477
482
475
457
471
464
454
441
439
443
455
465
477
487
483
483
494
505
504
501
505
500
480
475
501
502
507
519
506
496
491
493
494
496
490
479
478
472
465
467
458
452
450
437
414
402
391
386
386
386
381
391
384
368
367
364
349
335
323
323
334
339
344
337
317
308
304
303
306
310
301
296
304
307
308
317
333
333
329
321
324
334
334
339
337
329
315
315
325
342
367
370
361
367
364
358
329
313
319
326
333
340
353
356
348
332
334
347
361
370
381
379
371
364
360
363
364
367
363
359
366
377
380
382
370
352
332
346
361
375
390
363
355
373
380
372
364
367
373
379
369
364
372
362
358
362
366
357
347
344
346
337
334
353
365
377
384
376
362
360
374
376
368
352
339
342
350
354
353
360
353
345
346
344
350
346
358
366
366
369
373
365
366
365
352
354
354
358
363
363
354
350
360
364
361
360
359
353
339
327
337
354
374
391
400
383
359
351
352
351
359
367
376
382
388
381
359
355
363
365
367
367
372
370
378
380
384
385
373
361
363
363
372
393
395
384
382
381
389
385
368
375
388
391
389
389
395
393
396
399
397
393
392
393
399
415
420
414
412
419
408
401
400
404
418
423
410
404
411
415
415
420
414
425
427
411
400
389
375
362
354
357
372
388
393
384
380
378
363
352
349
376
417
482
543
578
632
687
724
748
740
690
630
565
493
413
347
312
273
247
247
257
269
289
318
351
368
365
364
350
338
340
345
349
348
349
344
343
360
374
389
395
393
377
356
355
373
393
406
409
404
391
393
396
397
398
395
397
395
390
382
373
381
406
429
451
442
407
402
421
429
431
428
431
429
439
468
472
463
469
474
487
496
496
488
473
458
472
493
509
513
512
513
523
520
527
534
523
516
516
517
506
508
523
534
545
548
552
554
548
534
522
518
527
534
548
555
558
558
553
545
538
528
518
495
480
476
491
510
504
482
467
456
448
455
455
437
435
445
436
421
397
363
366
378
385
383
376
380
384
383
380
378
380
387
385
385
385
390
398
403
386
385
389
391
387
393
406
422
426
418
410
410
422
429
436
441
447
446
433
427
432
441
456
465
460
451
442
444
446
442
442
446
448
450
451
443
432
415
405
431
455
470
476
470
455
450
450
444
446
461
469
455
443
450
473
480
463
459
470
495
500
474
452
444
452
454
465
467
456
448
453
463
453
457
468
475
479
477
477
478
467
466
464
456
452
454
446
445
453
459
464
466
470
489
501
499
486
479
472
462
463
466
459
454
461
465
470
476
486
489
486
491
473
465
459
465
461
474
500
507
501
479
465
471
478
484
492
493
490
490
495
487
485
471
464
477
508
510
509
517
510
486
470
480
501
509
510
505
496
491
483
490
512
522
523
530
534
530
526
536
532
533
536
555
557
543
550
570
565
543
534
535
537
544
551
559
559
553
549
524
498
506
517
512
509
505
506
496
502
515
510
494
485
479
481
486
494
500
496
491
476
470
474
495
505
488
473
473
510
579
635
688
750
812
840
840
822
783
726
632
530
461
422
397
381
364
352
350
352
363
390
406
398
402
415
420
429
446
458
471
464
466
464
453
444
422
408
415
441
460
448
442
435
434
455
483
494
490
486
493
512
515
514
518
514
522
541
545
536
532
526
532
541
545
543
534
528
526
534
539
559
563
541
536
560
576
576
579
572
561
563
564
564
562
579
602
590
583
576
574
577
580
596
605
605
594
587
590
601
614
626
622
606
597
597
587
580
592
609
618
615
621
629
638
632
615
609
608
605
594
577
570
563
549
543
536
532
525
520
512
502
500
495
500
493
485
474
465
467
460
447
448
452
441
428
435
453
448
455
468
478
462
458
456
450
445
450
462
473
473
467
479
481
484
478
463
449
453
462
493
523
528
518
506
514
494
462
455
475
503
528
539
527
512
512
511
513
521
522
509
498
507
516
518
532
550
537
522
513
515
515
512
516
524
522
507
486
482
495
505
519
524
518
521
524
535
544
528
506
497
509
534
528
520
518
520
515
519
514
519
516
505
490
500
516
517
518
502
496
520
538
538
534
541
533
518
518
532
534
529
524
522
526
532
536
534
526
530
531
527
535
551
563
570
564
547
533
534
533
540
534
526
522
519
508
506
531
561
558
544
534
514
504
492
502
527
531
533
532
533
515
507
508
516
520
532
531
514
512
525
525
531
538
532
526
531
521
513
527
534
531
529
524
533
542
534
542
544
528
518
516
524
534
532
506
501
512
525
545
542
528
510
502
526
530
524
524
527
521
524
530
540
538
509
499
502
491
482
485
472
470
491
501
487
464
460
471
492
506
512
506
535
590
638
700
773
828
848
825
778
713
630
545
475
419
379
345
320
325
345
372
404
417
411
412
426
446
457
446
448
457
449
444
437
436
438
447
462
453
441
446
468
478
485
490
479
469
470
464
471
481
482
482
490
509
520
515
509
513
514
517
520
529
520
507
508
500
500
517
524
524
530
544
557
551
552
555
560
547
544
551
559
567
577
592
592
591
596
585
575
577
596
621
617
604
581
577
587
594
612
606
605
618
620
616
596
597
608
609
617
626
612
601
603
595
582
589
601
600
594
593
584
574
570
551
534
530
518
513
505
491
489
483
486
493
475
462
444
424
397
394
407
410
402
397
397
408
423
425
423
418
414
420
421
420
423
422
420
430
431
420
420
422
429
428
436
439
435
443
436
446
458
456
456
467
473
463
458
480
489
497
503
505
499
487
488
479
486
506
515
522
526
525
523
510
505
525
530
512
495
479
468
475
488
517
528
524
511
516
520
519
518
524
528
522
517
513
505
507
498
495
499
511
522
535
531
531
522
511
512
520
523
521
523
513
513
512
515
528
536
527
532
536
534
544
550
543
534
515
512
502
483
490
528
545
545
549
550
535
533
533
528
537
547
547
528
515
513
521
526
530
533
532
534
528
526
521
513
511
522
526
524
531
538
516
494
503
509
509
525
542
551
564
554
548
537
521
518
532
537
527
528
541
554
559
548
530
521
520
524
539
554
555
541
536
519
515
527
538
547
564
569
565
565
553
542
543
550
551
558
573
578
573
566
566
566
564
556
548
564
582
582
573
571
573
566
552
548
535
527
532
532
532
536
526
502
500
508
524
514
510
517
521
530
528
552
590
636
705
788
861
910
919
894
837
759
674
582
502
443
411
389
402
423
429
430
447
470
475
475
479
480
489
494
492
481
476
476
470
470
473
477
476
481
478
470
484
486
481
484
492
499
497
503
504
501
495
483
490
507
514
505
498
498
493
488
482
491
494
501
510
505
504
499
502
512
519
518
528
522
506
499
510
523
530
527
519
503
518
539
546
540
537
548
555
543
541
554
552
553
559
557
562
556
561
579
584
587
591
591
591
597
603
585
568
566
574
590
570
556
556
560
566
565
548
551
556
561
548
544
536
510
490
482
470
458
450
443
435
426
423
418
411
414
413
420
425
410
412
415
396
381
378
389
404
405
393
376
380
404
423
433
418
406
420
420
415
415
419
413
409
427
442
460
468
455
436
422
422
436
438
438
425
434
452
461
470
467
456
460
471
478
476
465
468
468
463
467
480
487
489
484
471
467
460
457
466
483
482
479
475
482
495
490
464
473
496
495
482
490
497
490
480
482
487
490
486
487
499
516
536
532
506
488
481
496
512
511
510
507
507
509
520
530
513
506
502
515
510
491
472
480
497
507
506
503
491
485
490
499
509
510
512
517
521
530
526
536
528
515
513
516
520
529
523
511
512
523
516
505
506
516
519
530
533
526
527
529
531
523
513
521
529
532
515
509
520
525
529
532
514
504
503
504
494
496
507
506
515
522
539
545
539
523
518
512
514
515
509
511
516
510
496
504
530
551
565
552
527
521
518
514
524
533
530
529
530
535
541
544
542
538
543
539
532
530
529
533
539
538
538
543
538
524
523
537
557
563
540
530
528
517
510
512
514
502
497
496
504
493
492
497
499
496
496
490
480
495
506
546
607
666
734
810
878
911
903
872
821
750
674
587
503
427
381
352
348
374
393
414
433
442
445
449
452
466
472
464
450
451
458
467
471
476
478
468
457
457
464
473
488
486
469
465
469
474
474
480
481
487
512
508
494
504
509
497
484
477
484
487
476
477
489
489
486
481
477
475
500
519
519
523
534
530
528
517
507
505
519
528
538
547
549
545
532
518
512
522
529
525
524
534
548
574
579
572
570
559
553
555
568
568
553
542
547
558
559
559
566
570
570
582
588
584
582
583
575
564
550
540
534
537
528
501
482
472
470
470
467
443
432
440
439
420
396
393
392
393
391
382
378
378
360
371
392
400
387
379
378
374
377
389
385
369
358
359
388
401
402
407
405
414
425
433
418
400
401
401
408
431
442
442
448
441
441
434
428
446
465
458
447
439
442
447
451
458
461
463
464
460
460
469
468
461
468
480
479
479
477
470
474
458
454
466
487
489
462
447
446
451
453
460
469
463
457
466
477
473
455
463
483
495
513
505
503
502
495
496
489
488
484
483
494
482
468
462
472
486
483
473
481
503
496
471
466
489
504
495
505
517
507
512
518
500
481
487
501
499
494
481
465
471
485
492
490
499
507
508
506
501
500
502
496
508
515
495
483
494
513
523
517
498
497
502
499
493
489
504
500
492
478
485
487
495
499
500
499
494
497
498
498
499
495
490
465
471
497
517
522
522
512
514
521
514
509
506
509
507
501
492
492
501
504
510
514
499
505
523
545
544
554
552
533
531
535
536
531
528
539
533
522
529
543
553
542
535
546
541
524
520
526
527
523
520
509
501
510
512
519
515
502
495
500
493
493
502
500
514
548
582
617
670
741
817
867
893
887
841
774
699
624
552
488
433
400
386
388
381
378
391
423
445
462
468
465
467
464
481
491
488
478
477
484
491
503
506
494
486
489
488
496
498
501
492
481
482
496
505
507
507
517
519
507
506
499
490
476
484
498
515
527
530
543
544
535
523
508
519
539
547
559
558
550
542
539
542
548
552
557
554
558
561
567
566
561
564
571
568
558
553
562
565
560
584
588
570
565
586
610
617
613
597
604
602
593
579
579
591
604
606
604
607
599
592
591
580
569
575
584
579
572
561
546
533
518
503
503
494
487
492
488
459
447
456
453
438
430
425
432
426
429
423
413
421
429
399
366
368
371
388
418
431
419
407
415
407
401
418
434
444
447
438
426
429
440
442
450
471
466
455
452
466
461
456
462
475
487
488
491
493
497
503
497
476
461
467
488
487
483
484
478
479
486
497
505
504
503
510
498
489
497
500
502
510
514
516
504
514
532
548
540
502
492
500
509
510
518
515
495
480
476
470
472
509
525
528
524
521
521
520
515
500
497
513
518
528
535
531
531
522
508
501
509
524
548
557
542
534
523
519
519
501
492
500
505
509
523
507
492
491
497
502
501
509
516
514
520
515
502
518
534
531
529
535
521
502
498
510
518
507
510
524
533
523
516
524
520
512
511
521
536
541
528
515
524
533
528
504
500
502
509
506
518
522
520
523
522
511
500
504
514
512
513
523
527
512
494
507
525
520
505
496
500
521
529
540
541
521
515
509
499
522
533
522
529
534
546
546
524
512
501
500
512
532
542
550
545
540
529
526
539
542
529
517
506
499
501
504
508
505
493
490
500
496
480
470
475
489
521
538
537
523
546
592
659
725
785
838
880
890
845
787
720
635
556
495
450
419
396
389
391
407
425
433
455
466
471
474
477
464
454
456
458
463
478
497
501
510
498
480
468
469
488
496
504
500
502
493
493
501
504
503
506
506
518
516
507
498
505
512
519
524
521
523
515
515
517
523
529
524
519
525
542
563
559
551
542
549
561
558
545
545
570
573
574
585
588
580
572
578
605
598
589
590
591
590
579
578
588
589
592
611
622
628
626
617
615
618
623
623
634
637
625
629
628
606
604
603
603
595
598
596
590
590
583
571
557
553
540
529
530
514
512
497
480
474
482
480
476
463
448
440
435
427
431
439
436
441
459
470
461
451
456
441
430
430
433
429
425
427
435
435
444
461
457
446
446
451
460
481
500
515
509
489
481
478
476
464
456
465
480
480
488
510
512
514
522
501
486
481
478
469
467
473
475
481
482
494
501
490
488
502
506
508
506
507
495
489
482
473
461
461
469
474
472
479
496
504
495
483
478
477
441
445
477
503
510
502
501
500
495
496
490
477
481
482
486
490
484
482
484
479
482
481
484
503
502
493
491
486
485
476
460
450
470
508
519
508
507
506
502
499
498
508
507
495
479
478
473
471
473
475
483
497
509
504
502
504
507
505
495
494
487
484
481
485
484
478
486
488
482
490
501
506
517
517
501
493
499
496
471
465
492
526
538
527
521
516
487
474
481
510
523
527
535
532
516
516
517
517
525
505
485
472
473
480
496
509
523
537
540
540
536
521
518
509
496
487
494
504
508
525
525
523
531
534
530
529
519
523
522
519
526
533
527
519
541
545
539
537
541
539
545
549
542
513
494
492
501
516
520
523
529
514
505
498
496
504
504
500
486
496
505
497
487
487
513
553
606
680
767
842
898
901
868
814
760
694
604
520
445
406
391
396
412
415
413
429
447
457
450
457
471
461
444
442
472
481
480
477
471
468
457
448
454
457
475
500
514
513
510
508
498
479
456
454
464
465
464
477
500
528
540
541
532
525
524
523
523
515
512
526
525
530
521
516
525
534
540
540
541
543
541
556
562
556
558
549
542
547
549
549
546
556
566
578
587
596
608
611
597
577
571
578
590
597
602
605
613
616
613
609
606
618
617
625
632
616
620
611
588
573
578
593
604
605
597
589
587
579
573
579
557
533
481
459
474
489
490
493
495
489
474
460
450
446
448
447
444
433
444
451
442
418
414
403
397
400
425
445
441
436
415
415
430
443
442
447
444
432
422
434
458
481
478
470
474
468
461
460
461
471
479
482
475
479
484
483
484
483
488
493
505
501
486
480
488
500
514
525
514
493
480
469
465
489
501
508
507
496
489
492
496
506
523
525
523
507
505
502
488
484
494
511
518
525
525
532
538
530
529
532
528
532
529
512
504
517
529
540
541
550
539
525
534
530
523
527
522
515
518
528
539
531
524
526
524
526
536
542
542
531
524
527
528
532
539
540
547
552
547
535
541
558
564
538
522
535
555
545
537
541
552
554
540
530
533
543
544
548
542
543
538
532
516
513
530
540
555
568
560
550
543
519
509
531
546
549
547
536
525
536
538
540
541
540
545
544
544
545
542
542
539
538
541
526
514
521
533
535
552
547
515
500
511
537
547
546
537
535
540
540
534
534
542
544
534
526
517
513
532
542
553
555
544
543
541
548
551
540
554
561
562
550
555
545
530
539
551
549
548
549
542
539
547
566
569
568
566
565
569
567
561
560
560
535
509
519
536
540
543
533
529
532
529
514
503
516
529
531
521
515
518
523
533
565
629
712
784
851
895
913
909
860
786
718
641
565
510
453
411
376
378
385
395
416
444
464
469
479
485
501
519
513
489
463
463
468
473
483
488
490
494
494
487
482
497
509
506
499
504
502
512
522
514
507
514
527
536
533
527
519
515
518
534
549
559
559
551
534
531
536
549
556
556
549
533
534
540
543
558
548
532
533
553
551
554
554
561
573
575
574
575
567
559
545
556
568
584
600
610
607
606
605
610
618
622
615
603
603
597
585
586
588
601
617
603
592
576
566
575
598
600
587
576
564
559
554
542
541
543
538
519
503
480
472
457
462
467
451
447
450
449
445
440
431
427
423
418
401
410
416
414
420
421
420
421
421
429
435
442
442
438
434
426
431
435
439
443
467
495
492
494
484
466
461
465
467
479
495
505
498
484
480
489
496
500
497
491
478
483
515
513
488
466
474
497
512
518
518
523
531
525
517
514
501
496
500
518
510
508
514
512
502
494
507
506
499
495
498
504
505
482
472
483
509
530
525
512
509
509
504
504
516
525
525
521
524
530
528
514
493
499
493
485
490
500
505
497
500
516
527
528
517
512
503
489
484
480
490
510
540
542
533
528
528
529
525
517
508
504
506
508
504
508
515
509
509
514
518
527
516
505
510
521
514
517
526
530
539
527
509
501
501
505
507
522
529
532
532
513
511
515
521
520
520
520
522
518
512
510
533
543
534
525
523
515
517
515
505
513
513
525
527
522
532
537
531
529
524
505
503
510
509
511
513
517
531
528
517
512
520
528
530
541
536
522
521
515
519
528
526
517
511
524
540
542
539
534
535
534
533
545
542
521
522
536
541
533
527
528
531
532
536
550
567
559
516
501
494
497
511
519
522
515
503
500
493
505
506
509
505
503
504
503
507
517
536
579
623
682
749
807
835
854
847
809
756
684
600
518
431
388
378
375
379
388
410
422
426
436
455
463
473
477
479
480
478
473
468
474
468
464
466
465
476
486
489
477
458
473
491
503
514
516
518
524
506
485
480
491
507
508
500
491
492
513
527
525
512
504
506
512
503
503
500
506
518
531
542
542
543
547
563
559
542
532
548
569
559
547
547
550
550
545
543
566
570
584
598
594
590
577
572
582
586
600
616
603
594
595
595
594
593
610
607
588
583
594
599
603
611
598
591
585
584
600
604
584
563
557
558
535
521
526
495
468
472
497
501
482
467
465
463
452
439
438
431
425
425
417
406
421
444
439
429
417
417
408
419
435
435
438
428
433
437
445
449
450
459
464
464
462
464
466
464
472
483
487
486
486
492
480
472
472
466
472
481
493
498
499
501
500
499
513
511
495
496
514
517
515
521
533
532
522
497
471
472
494
507
517
531
508
493
506
508
513
512
511
508
509
515
516
505
497
502
511
514
512
498
499
500
521
534
520
518
517
513
517
515
516
513
506
517
528
529
515
506
519
532
535
528
521
522
529
530
526
522
525
516
509
513
512
509
510
505
505
517
524
535
527
519
524
533
539
529
522
509
507
522
543
548
534
510
518
536
539
522
514
519
521
527
528
537
533
527
534
538
538
543
535
529
529
536
534
530
532
528
531
536
528
532
523
510
524
540
545
536
533
518
509
521
530
517
509
519
541
531
521
519
516
520
523
530
541
561
558
544
534
525
530
539
552
551
550
559
554
534
518
513
516
514
522
545
552
550
538
533
537
538
535
536
530
534
546
548
535
536
541
561
578
574
581
582
575
559
551
560
567
556
543
547
547
544
547
549
541
526
512
513
519
520
520
526
525
530
525
519
509
498
507
518
523
527
517
518
545
571
604
666
732
796
847
886
879
843
797
743
672
603
540
471
426
391
385
403
428
450
467
464
472
485
494
494
486
477
468
464
467
472
471
481
497
493
494
492
475
457
462
484
502
515
516
517
520
523
523
531
536
536
520
505
506
515
536
527
506
499
510
531
543
529
521
511
493
506
523
530
543
549
551
552
552
550
536
530
537
557
565
572
565
550
547
552
554
550
554
565
566
575
581
582
591
600
602
597
588
589
587
588
594
596
587
604
629
642
622
609
605
594
579
572
587
590
579
577
583
576
570
551
540
528
529
530
538
525
506
496
485
470
469
465
455
452
449
436
429
430
444
425
400
388
393
418
421
421
421
422
418
413
407
409
422
411
411
430
443
444
449
448
445
430
424
415
421
427
427
424
437
465
469
458
448
457
463
456
450
451
455
459
461
464
474
486
493
476
477
483
475
470
465
473
483
483
473
472
479
475
464
466
462
459
464
472
481
493
486
479
474
467
460
461
467
479
487
482
479
482
478
471
470
473
472
489
491
495
503
488
475
480
479
485
494
504
499
499
499
489
476
477
478
473
473
460
468
486
506
512
509
506
497
491
489
493
485
479
483
496
497
484
473
478
483
474
495
512
498
491
507
503
496
498
505
508
508
512
512
491
488
495
504
512
518
524
523
520
516
526
532
521
520
524
541
518
503
506
498
506
519
505
504
505
517
515
503
504
512
519
514
518
524
527
527
519
513
526
527
517
519
524
536
518
509
512
522
533
532
526
512
506
518
521
528
525
533
538
523
506
513
518
509
499
484
489
512
529
536
535
514
504
505
508
504
498
496
501
510
513
512
514
496
480
478
494
511
521
509
501
497
494
502
510
512
507
499
488
491
491
492
505
524
529
512
485
475
482
484
488
489
494
503
506
514
524
526
532
525
534
547
541
530
531
531
513
515
529
536
547
549
547
524
498
478
464
466
474
478
487
481
476
481
492
489
493
500
494
485
489
494
515
550
584
621
663
725
801
868
909
912
877
807
719
633
554
490
443
416
403
403
406
421
440
462
464
461
466
472
478
484
485
480
471
469
470
470
483
485
471
465
480
473
477
480
488
494
499
489
481
483
480
486
502
501
495
484
476
480
486
504
524
513
507
511
512
514
507
513
518
525
538
530
525
528
537
542
554
564
569
557
538
536
543
548
552
554
556
561
569
574
579
595
604
592
589
599
617
630
631
626
628
630
618
617
616
631
629
635
647
643
641
649
658
654
639
629
621
609
595
601
619
643
652
651
651
637
619
600
577
573
574
569
559
553
545
537
525
507
496
514
539
538
501
466
450
452
456
461
471
470
468
458
453
463
461
465
478
484
481
477
481
485
484
478
477
472
480
479
471
486
501
504
504
504
488
476
466
467
471
475
492
514
517
515
503
508
515
515
511
512
520
524
512
518
524
524
527
524
527
522
516
517
523
522
519
509
501
502
505
516
527
529
517
526
526
511
507
502
512
533
543
542
528
534
528
508
492
489
498
505
512
525
534
545
554
557
546
527
525
521
521
528
540
535
526
518
521
518
516
512
508
509
519
529
549
557
535
530
536
547
546
529
529
524
522
528
534
536
537
530
532
539
533
531
544
566
578
564
543
534
538
541
543
522
515
525
533
532
530
531
519
500
505
538
552
538
532
537
547
553
545
543
552
556
541
534
518
503
516
539
542
538
540
543
538
537
552
558
541
521
516
530
559
579
580
567
560
574
566
558
548
537
538
547
555
553
546
548
545
544
544
551
548
551
560
553
533
513
505
521
536
546
545
540
536
527
508
506
521
533
533
534
518
504
504
521
515
504
499
492
514
526
512
501
500
491
494
513
527
520
496
487
492
485
483
503
527
532
515
510
519
530
530
519
513
506
511
520
521
527
531
517
505
504
517
523
504
503
498
481
484
496
514
517
497
478
462
462
478
492
483
475
482
495
495
491
483
476
477
483
479
474
483
501
540
597
653
710
769
811
846
849
807
742
663
587
520
450
384
348
348
340
347
369
390
411
426
435
451
454
452
450
450
456
459
442
445
460
455
462
475
473
471
482
491
486
497
510
510
487
475
482
500
506
508
514
520
519
508
513
526
531
512
514
537
526
517
515
508
502
512
529
526
526
531
526
518
526
532
540
549
553
554
557
548
542
538
538
539
548
553
563
563
562
566
559
559
555
559
567
571
567
572
569
578
586
582
583
581
587
590
576
576
577
570
573
576
564
563
560
566
570
583
594
582
556
539
534
533
529
518
519
523
535
515
494
468
440
434
452
472
474
466
452
440
425
421
421
418
410
399
402
409
417
423
428
443
449
430
415
410
417
430
443
455
468
447
433
427
428
430
418
417
444
465
476
473
467
460
450
457
474
477
478
484
479
471
469
473
489
492
491
495
484
464
466
478
491
496
493
492
490
500
500
488
483
487
490
486
490
500
501
497
494
484
464
455
472
484
493
493
495
496
493
497
502
500
491
496
510
502
473
454
459
461
461
464
482
500
511
489
472
468
479
490
492
488
489
489
486
486
485
481
485
491
496
506
503
501
496
503
495
489
495
491
475
475
479
478
474
466
466
472
476
485
495
486
467
467
480
484
465
460
464
477
485
484
489
496
495
499
488
473
472
486
494
491
483
473
459
448
463
464
471
478
466
457
470
487
500
498
486
481
475
471
468
462
472
476
481
484
481
487
488
477
469
470
475
476
484
486
477
469
479
489
479
476
497
503
490
474
470
460
452
465
479
484
474
484
493
483
473
474
479
475
475
492
484
469
467
456
459
464
479
473
474
483
491
492
490
493
493
494
497
480
474
481
487
499
516
515
508
508
496
482
487
493
499
501
502
517
526
514
512
522
525
502
491
493
500
496
490
482
483
487
484
482
480
481
483
484
496
499
487
484
478
477
478
475
473
486
520
564
611
677
757
821
858
866
839
787
707
634
549
482
421
382
353
344
351
375
401
418
431
443
453
463
464
461
442
456
451
456
461
457
457
455
438
441
455
466
468
466
464
467
463
463
471
481
488
486
480
474
477
488
500
496
493
486
484
492
474
465
458
456
468
483
491
499
508
503
504
511
511
512
515
526
534
525
514
509
511
515
521
532
536
536
527
534
548
541
546
556
557
548
552
562
568
580
571
546
546
560
574
589
605
610
605
599
598
607
615
623
621
608
593
578
575
573
571
568
562
566
563
556
555
552
546
532
523
520
515
496
477
472
465
445
440
455
454
441
435
434
437
433
433
436
431
434
431
411
415
431
443
444
425
419
407
400
416
436
452
460
457
450
445
447
464
475
454
443
448
456
462
474
491
491
484
471
462
469
486
498
507
505
504
511
502
474
459
458
465
484
505
514
507
492
489
498
512
524
516
499
486
482
480
486
498
511
515
507
506
511
507
516
514
502
502
497
488
488
494
494
485
480
482
492
491
493
509
518
510
512
517
518
517
515
512
504
504
508
510
497
494
502
514
513
506
500
505
520
510
503
513
517
512
497
478
476
485
496
508
514
522
523
514
514
513
510
512
524
536
541
546
532
507
509
497
493
503
504
510
522
520
509
507
513
531
533
514
499
498
512
520
526
539
542
543
540
529
523
514
508
511
520
529
532
530
534
516
506
519
528
522
521
514
513
520
527
532
539
535
532
526
516
516
525
535
540
545
535
526
534
537
540
541
553
553
540
516
511
515
513
512
512
507
515
528
544
544
546
538
539
542
540
527
525
524
515
515
513
523
533
528
520
515
525
540
533
526
513
516
521
527
523
528
529
525
543
547
536
542
539
534
547
554
561
542
536
542
548
555
565
567
560
550
532
527
540
545
557
565
563
573
552
520
515
517
518
505
508
511
508
510
509
509
505
511
520
519
517
501
489
483
504
538
584
640
691
756
817
869
893
886
842
780
703
606
530
466
418
397
382
390
413
425
437
460
465
464
468
482
464
458
476
480
477
472
461
459
456
468
465
469
477
494
501
487
474
479
487
492
488
483
477
488
504
518
526
530
514
507
509
507
513
512
508
515
521
524
547
551
531
522
520
532
536
532
531
528
537
536
528
539
548
560
565
568
575
558
561
572
575
577
574
559
552
559
568
577
588
594
601
597
596
598
607
609
607
604
595
589
596
617
635
623
612
609
615
608
588
592
602
602
599
592
574
572
572
553
560
559
553
530
501
497
506
501
495
488
483
483
470
452
453
451
448
442
427
424
413
413
421
425
419
422
426
427
423
407
407
418
442
455
451
453
440
432
437
440
436
433
444
467
477
481
470
460
449
458
470
471
467
475
487
478
478
481
489
495
500
494
478
475
491
502
504
505
499
492
488
483
482
484
484
483
486
489
484
479
492
508
516
512
505
512
496
491
487
487
497
492
489
481
486
495
506
508
516
510
497
485
476
495
526
525
517
493
489
502
508
508
513
524
537
542
529
515
513
521
519
507
510
520
512
500
496
514
514
516
528
523
515
503
484
491
515
528
535
534
539
532
519
526
536
546
555
551
543
525
511
507
502
508
520
533
535
544
546
541
539
539
554
554
544
521
518
533
545
545
528
527
532
529
535
545
559
561
565
562
532
517
515
511
521
534
541
545
540
523
523
527
535
542
540
539
531
513
508
523
539
542
553
549
535
528
531
536
541
538
521
514
523
530
532
524
525
540
556
551
540
537
533
529
529
523
530
549
563
552
548
547
547
540
540
536
529
529
537
548
551
546
545
546
547
541
554
548
537
536
539
545
550
554
554
554
549
554
558
557
549
530
533
551
549
540
542
550
554
557
557
557
561
570
543
519
524
533
543
533
513
508
502
496
504
514
521
515
513
511
505
507
506
523
556
614
675
734
807
871
907
906
876
814
743
666
584
507
436
383
367
377
387
404
423
447
460
477
485
491
500
491
470
465
474
481
498
508
510
499
495
512
514
502
497
493
495
482
478
487
496
506
496
499
508
521
528
534
530
527
522
533
530
509
515
525
526
520
513
522
535
541
548
546
526
517
532
547
549
543
538
536
557
572
557
557
554
555
567
577
592
600
595
592
589
591
593
590
592
587
585
588
595
600
601
603
590
584
598
611
630
631
623
605
598
592
582
589
596
605
605
590
581
576
574
574
584
574
563
555
551
541
526
515
499
496
485
473
468
464
471
476
457
437
435
427
417
408
405
413
408
400
416
427
428
429
424
420
412
412
426
440
433
425
431
426
428
434
438
448
446
438
420
416
435
466
485
488
478
463
459
457
456
461
481
490
491
502
502
496
489
489
483
494
505
505
494
478
473
484
501
500
497
495
485
483
490
491
490
489
486
489
494
497
495
502
503
495
495
498
487
486
490
486
486
495
497
481
476
474
479
494
484
484
487
492
512
524
531
514
503
497
497
488
480
483
492
506
507
502
497
481
487
503
508
505
500
510
522
509
489
492
496
490
496
503
506
497
501
506
526
520
521
516
507
505
508
500
512
519
515
504
501
512
523
514
492
492
512
508
494
481
485
493
492
487
498
520
528
534
535
532
524
514
521
523
515
507
506
511
521
521
503
495
494
495
501
501
497
488
493
506
516
517
506
500
502
508
514
507
499
505
508
510
508
519
523
527
522
521
519
518
517
524
529
532
520
504
503
508
521
532
540
548
534
528
526
522
525
543
558
558
539
536
527
520
529
555
574
570
551
545
554
566
563
548
542
542
541
548
545
547
551
552
548
549
545
537
525
515
508
507
518
524
528
525
517
519
522
520
510
492
500
515
537
541
527
523
559
613
673
746
813
856
882
877
825
752
674
599
532
463
416
402
398
405
420
437
464
501
508
488
456
440
427
415
423
461
497
506
481
462
453
470
510
531
561
545
494
456
475
541
607
628
596
540
524
584
637
661
718
769
840
885
908
945
971
1014
1023
1023
1023
1023
1023
1023
1023
1023
1023
1023
943
812
799
832
838
858
868
906
935
908
830
703
567
463
315
169
92
52
29
17
10
6
4
3
2
2
2
1
1
1
1
1
1
1
1
1
1
1
1
1
1
1
1
1
51
795
1023
1023
1023
1023
538
284
153
83
46
26
15
9
6
4
3
2
2
1
1
1
1
1
1
1
1
1
1
1
1
1
1
1
1
1
1
1
1
1
1
1
1
1
1
1
277
847
1023
1023
1023
1023
1023
1023
1023
1023
1023
1023
1023
1023
1023
1023
1023
1023
1023
1023
1023
1023
1023
1023
1023
1023
1023
1023
1023
1023
1023
1019
1023
1023
900
626
339
182
100
56
31
18
11
7
5
3
3
2
2
1
1
1
1
1
1
1
1
1
1
1
1
1
1
1
1
1
1
1
1
1
1
1
1
1
1
1
1
1
1
1
1
1
1
1
1
1
1
1
1
1
1
1
1
1
2
154
445
719
881
932
945
1012
1023
1023
1023
1023
1023
1023
1023
1023
1023
1023
1023
1023
1023
1023
1023
1023
1023
1023
1023
1023
1023
1023
1023
1023
1023
1023
1023
1023
1023
1023
1023
1023
1023
1023
1023
1023
1023
1023
1023
1023
1023
1023
1023
1023
1023
1023
1023
1023
1023
1023
1023
1023
1023
1023
1023
1023
1023
1023
1023
1023
1023
1023
1023
1023
1023
1023
1023
1023
1023
1023
1023
1023
1023
1023
1023
1023
1023
1023
1023
1023
1023
1023
1023
1023
1023
1023
1023
1023
1023
1023
1023
1023
1023
1023
1023
1023
1023
1023
1023
1023
1023
1023
1023
1023
1023
1023
1023
1023
1023
1023
1023
1023
1023
1023
1023
1023
1023
1023
1023
1023
1023
1023
1023
1023
1023
1023
1023
1023
1023
1023
1023
1023
1023
1023
1023
1023
1023
1023
1023
1023
1023
1023
1023
1023
1023
1023
1023
1023
1023
1023
1023
1023
1023
1023
1023
1023
1023
1023
1023
1023
1023
1023
1023
1023
1023
1023
1023
1023
1023
1023
1023
1023
1023
1023
1023
1023
1023
1023
1023
1023
1023
1023
1023
1023
1023
1023
1023
1023
1023
1023
1023
1023
1023
1023
1023
1023
1023
1023
1023
1023
1023
1023
1023
1023
1023
1023
1023
1023
1023
1023
1023
1023
1023
1023
1023
1023
1023
1023
1023
1023
1023
1023
1023
1023
1023
1023
1023
1023
1023
1023
1023
1023
1023
1023
1023
1023
1023
1023
1023
1023
1023
1023
1023
1023
1023
1023
1023
1023
1023
1023
1023
1023
1023
897
774
712
740
799
798
734
622
474
329
248
277
367
