1
0
522
489
461
455
472
503
531
535
516
483
455
451
468
499
528
534
517
484
455
448
466
498
528
534
518
486
457
450
467
499
529
537
521
489
460
452
468
501
532
539
521
488
457
449
464
495
524
531
513
480
450
443
459
491
523
531
514
482
452
444
461
492
523
530
513
480
449
441
457
490
521
529
513
481
451
443
458
489
519
527
510
478
448
440
455
488
521
531
517
486
455
447
462
493
524
531
513
479
448
440
456
487
519
527
511
479
449
441
458
490
521
529
512
479
449
439
455
488
519
527
512
483
453
443
458
488
519
529
514
481
449
439
454
485
518
528
513
479
448
438
453
484
517
527
512
480
449
440
456
487
519
528
512
480
449
440
456
487
518
528
513
481
451
443
458
491
524
533
518
488
458
448
462
492
525
535
520
488
458
449
464
495
527
537
522
490
461
452
465
495
526
536
521
490
459
448
463
495
527
537
522
490
459
449
463
493
524
534
519
487
455
445
460
491
523
533
519
486
455
445
458
487
517
526
511
482
452
442
456
487
521
531
517
486
455
444
457
488
520
531
515
484
453
443
458
490
523
533
521
491
460
448
460
489
521
534
520
489
458
448
462
491
524
538
526
494
461
449
463
493
525
536
524
495
465
454
466
496
528
541
528
499
467
454
466
495
529
542
531
503
472
460
474
504
536
549
536
506
474
461
473
502
534
546
533
504
473
461
473
503
535
548
537
508
476
464
477
508
542
555
543
514
481
469
482
512
544
556
545
514
483
471
483
511
543
555
544
515
484
472
483
512
544
557
546
517
485
472
483
512
545
558
547
518
486
474
484
514
548
562
550
522
489
474
485
515
548
563
553
523
491
479
489
517
550
564
555
526
493
480
489
517
549
562
551
522
490
477
487
515
547
563
554
526
492
480
491
520
555
569
558
530
496
482
493
520
552
566
555
527
494
481
492
522
554
567
556
527
495
482
493
522
556
570
559
530
498
484
494
523
556
571
561
533
501
486
496
523
554
568
558
529
495
480
491
519
552
567
557
529
497
483
493
521
553
568
558
530
497
483
494
523
555
569
559
531
498
482
491
519
552
567
558
531
498
483
493
521
553
570
561
534
500
484
491
518
550
566
558
531
497
481
489
516
549
565
556
528
494
478
486
513
546
564
556
531
499
485
493
520
553
568
560
533
499
482
490
517
551
567
559
532
499
482
490
518
551
567
561
536
502
484
492
518
550
565
556
529
497
481
488
515
548
565
557
531
497
479
487
514
549
567
559
533
500
481
487
513
546
564
557
532
500
483
490
516
550
566
558
532
499
482
489
515
548
564
557
530
495
477
483
509
543
561
553
527
494
477
484
511
545
562
554
527
493
476
483
509
544
564
557
530
497
479
484
508
543
561
555
529
494
475
481
506
542
561
555
530
495
476
481
507
540
559
554
527
493
475
482
507
541
559
553
527
493
475
481
507
543
563
557
530
496
478
484
509
543
562
556
531
498
480
486
508
542
560
552
526
491
473
478
501
534
553
548
525
492
474
480
505
540
560
555
531
498
478
482
507
541
560
555
530
496
477
483
510
544
563
558
534
499
478
482
505
538
559
555
532
500
481
486
510
544
563
558
532
497
476
479
503
537
558
556
534
499
477
481
506
540
559
554
530
497
477
481
505
540
561
556
532
497
476
480
503
539
559
556
532
498
477
480
501
534
555
551
527
493
472
476
501
536
557
555
533
499
476
476
498
533
556
553
528
493
472
474
496
531
552
549
526
493
473
477
501
536
557
553
529
494
473
476
499
534
555
552
528
494
473
475
498
532
554
551
528
494
471
472
495
530
553
550
526
491
469
472
496
530
552
550
526
492
470
473
495
530
552
551
529
495
472
475
497
533
556
553
530
495
472
473
496
530
553
552
531
497
474
474
495
528
550
549
526
492
470
471
494
528
551
550
526
492
469
470
491
524
546
544
522
488
466
468
491
525
548
546
524
491
470
473
493
527
550
548
527
493
470
472
494
528
551
549
525
490
466
467
489
524
548
548
528
495
471
471
491
526
549
548
526
492
470
470
491
527
551
550
528
494
469
468
490
525
549
547
525
492
468
468
491
526
551
552
531
494
468
467
487
522
548
549
528
495
471
471
491
524
550
552
531
497
471
469
490
525
549
549
527
494
470
469
489
522
548
550
528
494
469
469
489
523
548
550
530
496
472
470
489
523
548
548
527
494
471
471
491
524
548
548
528
494
469
466
487
521
547
548
529
496
471
470
490
523
547
549
529
495
468
466
486
520
546
548
529
495
470
468
486
520
547
549
528
495
471
469
489
522
546
548
528
494
469
467
486
519
545
549
531
499
472
470
490
521
546
548
529
497
472
470
491
524
550
553
534
500
474
470
488
521
547
549
529
496
470
467
488
522
549
551
531
497
472
468
486
520
547
550
531
499
474
471
490
523
549
552
532
499
474
469
487
520
547
551
533
500
472
469
487
521
548
552
533
500
475
471
488
521
548
551
533
499
473
469
487
520
547
551
532
499
471
466
483
515
543
548
531
498
471
467
485
518
546
550
532
500
472
466
484
518
546
551
534
502
475
469
485
517
543
548
530
498
470
465
483
515
543
548
531
498
471
464
480
513
542
547
530
497
469
464
481
513
542
547
530
497
470
464
480
511
539
544
525
492
464
457
473
504
533
538
521
488
461
454
469
499
527
533
516
484
456
448
462
493
522
528
512
481
451
443
458
488
516
523
506
475
447
439
455
484
511
517
499
467
438
430
445
475
503
509
492
460
431
422
437
468
497
504
487
456
429
422
435
465
493
499
482
450
420
413
430
462
492
500
484
453
424
417
432
463
493
502
487
457
429
422
436
468
496
503
487
455
427
420
437
468
497
506
492
462
434
427
444
477
506
514
500
471
442
433
449
480
511
521
506
475
446
439
455
486
516
526
511
481
452
445
461
493
524
533
519
489
460
452
466
497
528
539
524
493
463
452
464
494
525
535
521
490
459
448
462
492
522
531
517
485
455
443
455
484
514
525
511
480
449
438
450
479
508
517
502
473
443
430
441
469
497
506
493
464
434
423
434
462
490
500
487
457
428
415
426
452
479
488
474
447
419
407
417
442
468
478
466
438
409
397
407
431
458
469
459
433
406
395
404
426
450
460
449
424
397
386
395
418
442
452
441
417
390
379
387
407
430
438
426
402
376
365
373
394
418
427
418
395
369
357
364
384
406
414
404
382
357
347
355
374
396
406
398
378
354
344
350
368
391
401
393
372
349
338
346
366
390
401
393
372
350
339
345
364
387
397
391
372
350
339
345
365
386
396
390
373
353
344
350
369
391
401
395
378
358
350
356
374
395
406
400
383
361
351
358
375
394
403
397
381
362
352
358
375
396
405
399
381
362
352
356
373
392
401
395
380
362
352
357
373
395
407
403
387
367
355
359
375
394
404
400
384
365
357
363
380
399
409
406
392
373
364
369
386
406
417
414
399
383
375
380
396
417
428
425
413
396
388
394
411
432
446
445
434
421
419
429
451
478
498
507
507
504
515
545
595
680
1015
1023
1023
1023
1023
1023
1023
1023
1023
1023
1023
1023
1023
1023
1023
1023
1023
1023
1023
1023
1023
1023
1023
1023
1023
1023
1023
1023
1023
1023
1023
1023
1023
1023
1023
1023
1023
1023
1023
1023
1023
1023
1023
1023
1023
1023
994
930
857
779
705
647
605
572
547
527
512
494
458
398
312
200
108
59
33
19
11
7
4
3
2
2
2
1
1
1
1
1
1
1
1
1
1
1
1
1
1
1
1
1
1
1
1
1
1
1
1
1
1
1
1
1
1
1
1
1
1
1
1
1
1
1
1
1
1
1
1
1
1
1
1
1
1
1
1
1
1
1
1
1
1
1
1
1
1
1
1
1
1
1
1
1
1
1
1
1
1
1
1
1
1
1
1
1
1
1
1
1
1
1
1
1
1
1
1
1
1
1
9
130
296
405
448
432
369
280
176
99
52
28
15
9
5
3
2
2
1
1
1
1
1
1
1
1
1
1
1
1
1
1
0
1
0
1
1
1
1
1
1
1
1
1
1
1
1
1
0
1
1
1
1
1
1
1
1
1
0
1
1
1
1
1
1
1
1
1
1
1
1
1
1
1
1
1
1
0
1
1
1
1
1
1
1
1
0
1
1
1
0
1
1
1
0
0
1
1
0
1
1
1
1
1
1
1
1
1
1
1
1
5
39
88
144
223
296
338
366
389
424
463
473
452
435
430
418
392
336
286
268
287
336
394
471
564
660
760
842
893
946
991
1014
1023
1023
1023
1023
1023
1023
1023
1023
1023
1023
1023
1023
1023
1023
1023
1023
1023
1023
1023
1023
1023
1023
1023
1023
1023
1023
1023
1023
1023
1023
1023
1023
1023
1023
1023
1023
1023
1023
1023
1023
1023
1023
1023
1023
1023
1023
1023
1023
1023
1023
1023
961
906
879
895
904
895
908
949
990
1020
1023
1023
1023
1023
1023
1023
1023
1023
1023
1023
1023
1023
1023
1023
1023
1023
1023
1023
1023
1023
1023
1023
1023
1023
1023
1023
1023
1023
1023
1023
1023
1023
1023
1023
1023
1023
1023
1023
1023
1023
1023
1023
1023
1023
1023
1023
1023
1023
1023
1023
1023
1023
1023
1023
1023
1023
1023
1023
1023
1023
1023
1023
1023
1023
1023
1023
1023
1023
1023
1023
1023
1023
1023
1023
1023
1023
1023
1023
1023
1023
1023
1023
1023
1023
1023
1023
1023
1023
1023
1023
1023
1023
1023
1023
1023
1023
1023
1023
1023
1023
1023
1023
1023
1001
1006
1023
1023
999
969
956
967
949
907
891
891
890
901
903
910
938
960
975
1000
1023
1023
1023
1023
1023
1023
1023
1023
1023
1023
1023
1023
1023
1023
1023
1023
1023
1023
1023
1023
1023
1023
1023
1023
1023
1023
1023
1023
1023
1023
1023
1023
1023
1023
1023
1023
1023
1023
1023
1023
1023
1023
1023
1023
1023
1023
1023
1023
1023
1023
1023
1023
1023
1023
1023
1023
1023
1023
1023
1023
1023
1021
995
1007
1013
1020
1023
1023
1014
1012
1023
1023
994
997
1018
1023
1023
1022
1023
1023
1023
1023
1023
1023
1023
1023
1008
995
1017
1020
1023
1023
1018
1000
977
970
955
941
943
950
940
913
909
930
936
931
900
874
900
928
947
958
952
957
970
971
974
965
945
947
959
950
941
926
916
915
918
922
939
952
943
908
885
894
909
924
918
900
897
882
874
886
900
905
922
941
939
931
922
898
896
913
919
920
918
912
907
907
915
904
902
918
928
929
934
929
922
937
947
927
900
900
898
900
920
917
887
892
937
951
918
882
880
913
943
935
917
886
880
899
928
933
926
927
929
940
923
921
912
874
851
863
881
909
926
920
906
910
912
910
910
912
910
918
928
934
911
915
927
933
931
952
962
954
965
978
992
992
967
947
939
959
970
960
960
956
955
977
1013
1022
988
964
972
960
956
950
954
974
980
977
970
969
982
1009
1021
1007
1005
1013
1007
1001
971
964
1005
1023
1023
1023
1023
1023
1023
1023
1023
1023
1023
1023
1023
1023
1023
969
942
938
956
970
983
999
1023
1023
1023
1023
1023
1023
1023
1023
1023
1023
1023
1023
1023
1023
1023
1023
1023
1023
1023
1023
1023
1023
1023
1023
1023
1023
1023
1023
1023
1023
1023
1023
1023
1023
1023
1023
1023
1023
1023
1023
1023
1023
1023
1023
1023
1023
1023
1023
1023
1023
1023
1023
1023
1023
1023
1023
1023
1023
1023
1023
1023
1023
1023
1023
1023
1023
1023
1023
1023
1023
1023
1023
1023
1023
1023
1023
1023
1021
992
955
944
935
927
935
945
920
894
899
897
902
898
899
889
847
808
812
833
840
831
815
794
770
747
729
713
706
696
681
655
637
625
613
606
598
570
546
529
506
489
471
452
441
436
443
449
454
439
436
426
408
408
417
430
420
392
383
379
377
372
380
388
401
389
371
368
377
394
426
456
469
463
481
502
501
486
496
521
532
515
513
538
562
568
571
586
590
592
607
592
556
529
524
535
565
586
577
549
540
552
562
585
594
576
569
567
581
588
580
587
594
596
602
618
625
607
573
556
556
579
586
577
557
554
544
553
554
542
531
521
514
522
528
541
539
527
528
529
522
533
539
530
507
497
510
502
503
522
528
516
500
489
482
492
493
481
460
451
468
478
469
469
473
473
469
475
466
458
465
451
429
436
451
485
518
522
502
463
452
453
461
474
486
485
479
470
467
470
482
507
515
495
485
485
498
509
523
508
462
430
422
430
444
458
474
489
487
474
474
478
469
456
463
483
480
457
454
467
484
480
457
445
440
447
432
422
444
457
445
438
446
447
437
422
414
424
442
424
404
391
394
392
390
384
383
390
399
395
385
378
383
386
398
402
399
382
368
388
405
404
397
418
441
448
425
404
396
390
370
364
366
361
348
337
329
341
368
382
378
368
368
373
379
373
389
396
397
398
398
392
383
380
389
406
419
420
420
412
401
403
415
433
440
422
413
410
404
361
342
340
333
331
331
330
342
350
336
324
339
354
367
371
383
383
365
357
370
384
419
481
544
615
698
772
837
851
826
766
704
620
504
386
286
225
202
197
201
218
245
277
310
322
320
323
341
362
351
342
354
370
366
354
338
319
329
352
352
346
340
357
364
349
351
356
364
385
397
398
382
368
378
383
386
402
422
436
448
440
424
415
398
389
395
417
424
407
405
409
401
382
383
389
390
402
402
408
416
419
438
465
466
442
432
437
442
440
438
437
447
460
458
463
479
492
518
530
521
490
455
439
434
456
481
489
494
500
510
514
505
489
475
463
491
502
488
479
478
443
420
414
421
432
426
429
443
448
428
401
366
328
315
295
278
268
270
262
267
257
261
280
264
229
199
197
218
217
209
211
205
179
173
178
179
170
164
167
166
179
191
190
171
164
176
190
188
184
184
161
150
168
190
206
206
208
220
212
199
199
211
224
252
262
256
249
239
230
228
224
218
219
227
240
259
273
275
279
278
272
275
294
311
318
310
302
286
282
301
309
294
276
275
318
325
327
327
327
313
300
305
325
317
290
285
294
307
318
310
306
328
351
348
322
313
328
350
336
331
340
354
344
344
351
365
372
377
380
371
367
366
351
337
329
342
343
337
341
359
358
344
355
366
372
382
380
377
378
359
349
346
351
347
340
352
366
367
352
340
351
370
375
369
361
352
353
367
371
375
365
360
355
349
362
385
400
405
388
359
353
368
371
388
413
417
407
400
403
401
390
401
412
422
420
411
418
420
439
440
440
448
428
430
437
449
448
434
434
429
434
433
446
464
467
482
492
492
463
429
425
434
447
459
461
456
462
474
482
470
445
433
434
450
471
483
481
481
492
496
492
490
495
511
508
473
471
489
500
502
486
489
515
511
480
464
459
471
480
480
471
488
503
519
533
524
484
472
479
485
484
493
501
497
496
504
514
527
509
511
507
509
516
509
500
493
485
502
523
514
494
484
468
484
506
524
514
505
517
504
503
506
497
480
481
488
471
447
457
464
468
488
490
483
486
495
473
445
445
444
454
471
476
478
489
532
608
708
795
856
889
915
890
810
705
607
503
407
338
289
263
273
302
322
324
320
345
365
391
403
408
417
402
393
377
367
397
415
418
421
430
443
437
434
434
425
422
431
440
454
461
452
452
444
438
451
470
473
467
478
494
492
471
464
475
486
487
486
475
474
484
493
502
506
504
495
469
456
484
509
521
535
544
544
529
511
515
537
546
547
550
557
565
558
571
595
589
551
547
571
579
570
567
563
579
574
564
577
599
623
628
619
599
586
591
577
579
599
613
622
609
587
574
562
548
545
558
558
542
515
491
455
426
440
468
470
451
438
435
431
439
451
439
420
384
341
330
356
375
377
371
372
362
343
338
333
327
322
324
333
342
352
368
379
367
372
386
411
433
435
422
441
463
478
476
452
448
457
481
490
482
469
461
473
461
454
458
459
463
475
487
482
481
474
476
472
477
473
471
476
479
469
457
463
481
494
516
527
496
478
475
491
513
494
483
487
485
485
478
468
449
446
450
445
446
460
456
459
466
464
458
455
464
482
473
452
455
476
483
484
485
476
457
457
466
473
470
454
434
420
409
414
454
469
469
470
467
456
448
451
456
460
461
459
440
424
438
443
445
445
443
428
437
445
442
436
428
423
425
426
408
402
390
402
439
451
443
429
426
433
447
457
462
469
466
447
422
397
385
387
404
424
431
439
450
453
434
424
424
438
467
467
450
421
423
427
441
462
479
468
452
446
453
455
462
465
464
444
419
420
444
470
480
451
429
437
444
448
441
441
434
412
402
416
405
422
440
457
463
450
459
466
463
453
440
432
435
447
442
436
434
440
455
465
469
473
460
430
407
396
402
414
441
452
458
451
450
434
434
440
442
437
441
454
456
450
429
402
418
449
471
474
450
412
399
394
398
420
440
449
441
435
418
421
433
445
458
452
446
453
463
451
426
414
435
464
481
476
461
441
415
410
420
431
447
463
470
476
473
457
445
454
458
436
418
423
430
434
419
430
444
449
453
446
438
437
433
433
428
418
415
429
454
463
473
507
558
612
683
782
874
927
942
915
818
697
583
488
395
320
269
239
251
259
275
331
362
369
375
384
391
401
408
401
390
389
398
415
423
400
393
396
398
408
424
427
416
421
421
412
424
488
507
478
437
415
421
450
457
448
448
485
499
479
466
458
450
454
463
464
478
489
483
473
473
480
488
489
480
478
484
481
483
494
493
492
490
489
503
523
525
522
510
497
499
513
533
545
566
568
539
523
512
519
540
551
550
566
567
559
532
546
583
599
589
586
576
561
558
543
528
523
535
560
567
561
563
564
566
569
551
518
487
477
442
420
443
467
458
435
417
397
366
360
352
350
362
376
373
364
378
389
365
335
320
302
304
321
321
326
336
328
320
307
322
353
382
377
372
359
359
371
375
383
376
386
368
341
342
376
384
381
377
388
398
414
444
449
435
398
394
401
406
421
428
436
446
446
430
429
444
432
417
422
430
432
443
462
453
446
443
451
450
456
466
485
483
460
458
464
455
447
433
439
431
423
433
442
446
454
442
443
467
485
492
480
470
477
478
476
474
469
478
476
460
453
474
496
503
491
487
475
464
466
478
472
481
492
480
488
508
499
485
477
473
471
471
467
475
494
520
520
513
508
516
514
492
476
481
492
500
496
487
488
480
470
478
476
471
465
479
487
484
486
488
495
498
494
488
490
488
492
494
498
496
479
453
457
458
452
455
462
473
472
466
474
478
498
521
503
478
479
479
479
496
497
477
456
450
462
472
484
473
464
466
462
473
477
472
482
507
522
523
511
498
502
510
526
519
502
492
510
509
477
459
457
443
451
471
485
489
476
485
495
504
503
490
496
500
509
508
494
495
502
514
512
512
511
518
513
510
513
522
511
478
470
474
477
489
508
528
521
502
502
490
474
476
483
491
499
518
508
494
491
488
495
506
514
525
519
518
512
501
508
528
538
535
527
533
540
545
543
551
551
533
526
521
518
520
522
551
570
573
566
543
537
534
510
509
514
522
521
524
522
518
516
524
533
529
514
510
506
479
472
502
529
539
530
497
477
473
468
467
472
482
512
558
613
686
768
855
930
973
968
912
836
734
625
538
453
388
332
288
305
340
354
377
407
427
428
419
425
441
467
476
470
453
457
466
475
477
495
498
483
471
467
471
475
455
457
462
447
448
476
514
530
532
531
541
554
547
534
517
508
513
523
525
504
506
498
491
489
488
494
503
512
513
499
508
508
499
502
504
496
522
550
566
571
561
537
524
524
530
523
515
535
545
550
560
567
567
573
582
587
569
564
559
559
576
585
593
618
614
590
584
594
604
603
604
611
616
626
635
616
589
592
595
602
582
561
546
528
524
510
493
504
505
502
508
507
490
452
418
410
411
414
418
400
394
422
425
412
398
379
376
367
354
347
346
345
338
342
346
346
363
371
370
378
375
368
371
387
382
379
369
385
403
410
410
409
399
399
404
417
428
445
451
448
440
433
437
436
428
441
453
452
450
470
459
439
437
456
463
471
481
485
473
480
502
500
471
464
462
482
486
480
476
474
478
492
506
508
503
488
493
498
507
512
505
490
477
474
484
479
459
458
457
459
474
481
483
474
465
473
480
476
462
474
492
513
528
522
519
516
506
518
522
505
498
485
484
497
499
480
492
498
497
505
506
497
489
492
505
508
511
497
500
504
507
514
519
514
516
530
548
534
537
549
546
542
526
490
469
476
489
502
504
511
522
527
527
536
532
507
487
486
500
503
498
506
522
531
533
549
553
551
535
535
539
562
542
494
480
479
483
509
531
524
522
518
532
528
506
507
504
529
560
573
555
522
523
536
530
528
541
543
533
528
541
563
569
566
551
548
549
534
526
526
519
512
519
515
529
538
523
541
556
549
559
586
576
542
534
534
526
539
577
587
570
555
532
529
524
519
535
541
523
507
502
514
520
515
529
541
539
528
527
527
543
540
531
525
529
522
518
531
545
542
534
530
554
569
564
559
543
519
520
533
540
535
541
547
537
532
544
557
563
552
544
547
545
539
537
557
560
575
558
539
512
491
493
509
543
557
536
531
557
561
533
502
511
532
532
527
523
527
535
537
532
527
517
517
515
520
556
595
645
715
796
889
968
991
990
955
872
767
647
540
450
387
335
307
300
306
336
373
416
454
469
466
462
475
492
479
460
463
470
477
493
508
524
507
491
475
468
479
482
482
456
468
499
497
502
510
518
519
514
500
504
508
492
493
497
516
526
525
531
513
496
507
532
545
549
532
513
515
520
503
512
540
523
502
489
496
524
541
540
516
524
533
547
570
580
579
585
572
573
585
590
575
569
562
566
588
600
581
563
564
584
600
605
589
588
571
573
596
598
584
566
573
585
576
568
561
546
537
552
576
580
550
513
487
455
444
471
486
478
458
445
452
440
417
413
416
404
366
351
352
368
364
346
347
341
331
327
333
358
372
365
369
365
363
355
342
337
351
359
368
394
387
378
377
381
391
403
424
427
410
389
394
415
408
407
413
420
429
429
413
408
413
426
437
437
447
457
464
466
475
491
467
441
440
444
441
437
446
450
452
464
468
484
490
473
451
434
438
445
449
462
467
478
481
487
484
460
448
454
469
478
481
476
477
482
483
484
468
451
444
458
480
491
484
487
486
493
512
505
485
480
480
477
467
457
469
477
471
461
465
476
475
465
464
462
451
456
474
480
487
492
484
495
502
496
490
485
476
464
467
462
456
454
461
460
456
468
483
475
478
477
467
474
482
465
452
452
466
476
481
462
443
451
459
457
447
454
472
477
486
479
480
481
472
465
446
451
476
465
446
457
472
470
479
493
489
492
483
457
454
459
450
426
445
461
447
445
460
461
458
466
471
471
480
490
475
463
442
432
444
463
478
495
496
480
472
478
475
466
468
467
447
441
449
454
464
487
499
486
471
458
459
465
471
480
480
483
475
475
473
459
461
467
481
479
475
489
489
479
480
496
497
481
484
510
517
503
476
467
477
487
494
497
500
511
493
471
473
466
480
503
483
462
471
488
515
534
532
538
532
504
459
462
494
520
537
535
534
533
506
496
486
481
483
490
496
486
475
452
453
464
471
489
493
491
476
460
479
491
487
468
479
481
473
478
491
533
562
602
669
755
841
894
920
925
887
810
726
628
516
384
287
253
243
262
304
340
360
382
393
400
418
424
436
448
441
419
406
421
422
412
421
424
434
457
464
452
463
447
445
459
476
489
487
481
484
494
495
486
477
476
480
474
483
499
495
479
479
477
464
464
485
491
491
481
504
519
508
499
491
477
479
488
510
532
537
545
547
539
551
561
558
557
559
541
537
537
554
558
545
555
556
562
571
560
551
562
584
595
616
612
613
623
619
613
599
599
598
623
652
633
625
629
608
607
590
572
571
569
553
536
536
547
545
541
538
528
524
512
498
489
484
471
448
426
395
381
383
387
392
389
399
393
384
380
373
376
378
348
337
341
354
354
349
355
370
384
383
380
380
380
373
366
367
379
397
398
401
405
400
388
393
401
422
423
431
422
417
421
425
427
456
461
454
449
445
443
430
431
452
456
452
446
455
457
450
450
444
453
460
470
469
466
454
446
447
457
458
470
484
470
448
454
473
505
524
503
469
456
469
474
468
473
476
485
487
469
448
451
484
489
474
472
483
492
492
488
470
471
469
478
487
488
501
521
528
522
493
462
456
464
467
480
505
514
495
486
485
488
498
491
471
457
469
483
501
509
494
492
512
527
525
532
517
487
478
485
487
494
516
531
510
507
508
512
514
522
534
508
498
485
487
496
478
479
499
511
509
501
508
515
521
523
520
542
539
515
502
508
509
501
496
502
499
497
484
494
525
544
548
528
498
493
517
527
519
520
507
495
499
507
512
506
530
543
542
536
528
513
495
484
480
491
486
480
500
522
516
519
515
497
498
520
537
536
526
508
506
508
503
500
502
505
512
529
542
530
511
507
492
484
515
539
542
531
521
513
507
504
519
547
544
542
539
521
492
497
490
500
510
514
521
515
523
527
512
522
548
556
547
526
526
514
515
515
502
505
533
545
537
539
554
555
550
532
501
505
530
541
533
536
563
581
579
569
537
519
533
525
514
528
537
524
514
514
516
497
486
483
502
511
493
481
480
486
494
499
494
501
516
523
520
505
511
547
609
703
784
849
930
1000
1023
965
860
763
670
577
478
384
318
289
293
316
350
387
405
417
421
396
408
439
452
454
461
474
493
490
460
474
485
473
456
463
493
497
488
492
488
479
483
490
492
503
524
519
497
492
485
494
488
491
500
506
508
501
517
534
542
534
520
534
544
544
553
564
559
534
529
540
545
539
534
547
568
572
565
559
537
545
572
599
599
578
573
597
592
579
611
634
626
613
606
604
603
598
606
617
612
615
624
632
637
639
644
644
636
632
619
603
612
652
654
654
640
621
611
598
590
578
571
555
548
546
548
556
534
509
494
485
471
448
442
439
439
434
420
409
402
411
416
404
420
430
444
433
418
394
364
354
373
387
380
387
391
386
384
374
396
424
423
426
437
443
438
430
417
409
417
420
419
430
449
462
445
443
489
503
488
476
458
450
443
447
450
463
485
495
478
461
462
459
461
484
486
510
507
489
454
438
448
465
483
489
499
524
522
515
486
470
467
463
460
463
462
456
466
478
477
485
482
486
476
466
477
473
465
475
476
474
478
477
483
494
494
492
486
489
494
478
465
476
480
481
465
454
461
478
500
500
489
477
470
471
490
501
508
498
491
489
493
512
504
480
467
475
498
510
501
507
512
491
498
509
503
495
485
479
496
496
496
507
509
505
478
464
472
483
502
499
492
505
508
501
496
490
495
499
499
512
512
505
493
496
488
495
511
514
510
500
490
486
487
491
500
495
487
507
510
505
500
492
502
527
521
500
505
503
490
492
512
515
511
525
505
488
476
485
490
495
507
522
524
528
520
510
511
498
492
498
496
502
504
519
528
516
500
489
496
490
494
496
505
536
548
546
542
511
504
514
516
513
498
499
496
481
491
513
512
499
489
500
499
486
498
508
514
522
534
523
513
521
525
520
521
527
530
527
526
500
475
482
520
549
561
542
517
497
510
526
538
529
524
537
534
511
501
515
544
545
523
500
501
527
549
560
554
527
508
517
530
520
521
525
511
492
470
467
481
480
469
468
476
485
471
473
488
501
510
510
515
559
600
654
728
800
871
945
984
983
906
796
688
595
507
412
342
319
311
301
285
312
360
390
411
423
436
442
451
462
471
475
480
475
452
455
460
463
473
481
476
476
483
509
523
509
495
480
469
474
500
512
536
520
503
486
489
492
495
500
516
530
515
507
509
504
502
516
530
538
532
522
542
576
582
567
545
523
539
546
535
533
546
561
571
577
573
576
578
581
562
571
588
584
564
566
569
568
586
600
604
601
576
561
577
595
603
597
608
623
627
616
614
595
586
605
594
576
570
579
599
600
590
553
537
543
549
565
555
540
527
533
512
480
466
460
465
458
456
444
424
418
417
414
407
414
422
429
393
357
368
387
396
400
408
380
371
367
375
388
399
395
397
414
406
417
427
428
433
450
469
456
446
456
476
480
470
465
456
455
464
486
494
498
492
477
481
513
522
503
487
493
515
530
537
534
530
524
515
501
503
513
518
512
510
514
513
510
499
496
493
493
507
492
483
501
516
529
531
516
505
500
495
493
508
522
530
530
513
488
495
501
499
510
514
506
503
505
503
509
523
524
507
502
495
477
486
502
504
508
513
521
533
529
517
520
535
525
511
512
509
509
515
518
503
503
511
521
538
538
528
513
490
496
511
498
494
494
503
514
520
520
520
528
528
522
513
526
549
552
532
530
523
534
526
506
505
510
511
517
507
501
498
499
495
508
516
516
523
531
523
519
516
530
546
540
537
536
522
528
539
527
507
496
481
482
474
486
515
519
513
528
545
533
513
507
512
529
531
523
529
519
499
496
511
531
528
514
527
531
513
491
488
484
500
515
503
488
508
532
525
519
523
532
546
565
554
539
529
525
508
485
487
508
524
545
544
549
544
520
502
489
495
500
500
517
529
512
501
514
538
537
539
537
529
530
555
559
542
521
525
538
524
519
534
536
547
537
518
520
530
518
506
499
512
524
507
495
515
532
523
507
499
485
483
509
527
522
519
507
508
514
502
497
511
537
584
626
710
804
895
961
990
976
917
841
735
621
520
440
361
315
295
306
332
343
355
377
406
425
430
437
462
484
478
472
480
477
459
436
440
451
451
465
474
496
503
490
479
476
489
502
501
498
498
512
515
508
496
488
486
495
504
519
517
514
513
512
515
498
493
506
509
498
497
504
495
503
516
525
533
537
547
554
547
528
522
522
555
582
581
566
550
543
554
563
571
584
599
602
596
593
594
598
613
625
609
606
601
579
582
590
607
628
625
615
612
595
594
598
607
628
636
638
634
620
613
589
564
567
578
563
554
561
543
519
500
488
475
470
464
459
464
429
418
418
423
433
420
410
412
395
385
380
377
390
407
404
399
395
402
413
414
405
402
407
405
380
387
388
389
402
417
415
426
436
436
434
448
440
431
438
443
440
454
470
481
482
485
477
465
459
464
470
482
501
483
470
468
474
496
519
522
518
499
480
484
477
466
466
470
475
488
510
527
506
489
492
510
525
496
481
474
466
471
485
490
510
504
497
496
502
497
487
487
496
511
525
524
501
483
481
503
516
534
525
518
507
488
485
502
494
487
496
504
504
501
485
502
531
546
556
553
536
499
489
494
502
515
516
507
506
519
503
508
523
520
499
501
508
498
489
493
495
490
485
494
512
535
545
544
526
514
506
494
486
489
490
490
499
515
532
533
521
499
494
496
506
500
484
471
472
481
496
485
494
503
518
528
525
513
512
490
473
501
542
534
510
499
486
480
515
543
523
503
494
485
494
504
505
510
495
524
539
520
501
477
469
471
483
497
491
491
502
515
522
529
528
528
525
520
503
484
479
498
508
514
508
505
498
499
531
548
549
529
528
526
506
498
483
494
517
523
503
504
517
517
532
542
517
503
512
521
516
516
534
542
548
549
541
531
533
534
525
538
555
567
553
529
526
520
528
534
535
538
556
555
531
503
488
501
539
580
570
532
506
500
493
496
496
504
518
519
509
500
507
507
510
526
525
521
520
516
528
540
580
641
714
799
883
962
1001
968
907
830
736
643
547
438
376
357
345
328
322
338
374
412
433
454
474
478
467
465
471
464
457
468
485
497
485
471
471
490
480
465
468
470
474
495
512
524
508
485
501
525
526
515
497
494
486
496
505
512
526
529
526
518
495
510
520
533
546
552
551
556
541
525
521
522
531
543
540
537
533
531
539
535
536
543
548
546
551
565
567
568
579
587
592
595
609
613
616
618
612
621
642
636
614
619
613
604
595
597
607
617
619
637
627
608
606
610
605
608
620
619
612
611
611
590
565
560
543
531
533
526
527
541
527
491
470
445
448
453
434
423
414
394
381
392
404
414
404
368
369
374
381
388
393
381
363
368
384
405
435
453
434
401
383
386
382
385
403
400
419
429
432
431
437
428
409
418
433
432
436
450
467
471
466
465
477
473
475
490
500
492
454
425
426
439
455
465
481
479
468
476
481
488
487
466
447
452
467
480
496
487
490
500
514
510
491
485
496
504
482
469
477
470
460
450
456
469
473
484
490
478
459
470
486
482
472
485
487
463
457
485
495
503
498
494
490
471
457
456
467
472
477
490
495
493
496
497
489
492
497
505
499
473
450
460
492
487
470
481
493
506
518
514
483
482
482
483
495
485
484
493
493
499
499
501
518
532
528
507
500
502
496
472
477
467
461
482
492
522
541
533
495
487
485
483
494
505
515
535
530
520
500
478
491
514
520
505
500
505
500
502
499
492
496
488
496
509
520
503
487
479
489
498
509
526
536
533
510
509
517
500
497
493
493
497
504
511
525
529
524
510
519
535
532
516
508
510
517
509
488
498
512
525
519
512
504
500
508
538
547
536
529
525
509
506
512
520
534
535
522
507
495
495
520
544
537
540
551
531
497
495
511
524
531
544
536
529
532
538
549
567
557
556
551
555
545
515
510
513
516
536
556
547
531
543
555
548
534
528
552
565
555
552
549
555
541
509
499
505
518
537
534
533
529
529
520
513
526
522
519
508
511
518
518
514
531
545
561
608
663
731
819
911
978
1010
985
941
838
718
614
510
426
363
324
312
330
336
337
348
400
443
469
482
478
482
492
488
501
508
494
487
482
489
507
501
497
496
497
504
507
507
497
500
509
512
521
529
504
510
502
504
527
538
545
538
557
557
544
538
518
518
522
526
537
549
547
533
545
547
542
545
570
573
540
521
527
544
565
578
588
573
567
568
562
555
560
572
578
600
611
595
579
583
612
630
629
622
618
613
627
642
647
616
594
611
638
658
655
655
647
604
594
619
618
589
592
615
609
604
606
592
573
564
566
573
578
580
558
536
516
491
467
466
481
489
471
438
408
395
410
432
451
446
415
367
322
306
304
303
290
305
346
391
413
409
385
388
401
413
415
428
429
378
329
314
309
333
379
375
327
260
191
130
90
73
65
85
110
96
67
49
45
45
35
19
31
103
152
161
154
135
123
159
181
201
202
260
361
465
580
677
612
437
277
165
93
50
27
15
9
52
178
352
547
748
947
1023
1023
1023
1023
1023
1023
1023
1023
1023
1023
1023
1023
1023
1023
1023
1023
1023
1023
1023
1023
1023
1023
1023
1023
1023
1023
1023
1023
1023
1023
1023
1023
1023
1023
1023
1023
1023
1023
1023
1023
1023
1023
1023
1023
1023
1023
1023
1023
1023
1023
1023
1023
1023
1023
1023
1023
1023
1023
1023
1023
1023
1023
1023
1023
1023
1023
1023
1023
1023
1023
1023
1023
1023
1023
1023
1023
1023
1023
1023
1023
1023
1023
1023
1023
1023
1023
1023
1023
1023
1023
1023
1023
1023
1023
1023
1023
1023
1023
1023
1023
1023
1023
1023
1023
1023
1023
1023
1023
1023
1023
1023
1023
1023
1023
1023
1023
1023
1023
1023
1023
1023
985
905
821
745
686
643
612
578
529
469
401
343
302
276
261
240
205
159
106
60
34
19
12
7
5
3
2
2
2
1
1
1
1
1
1
1
1
1
1
1
1
1
1
1
1
1
1
1
1
1
1
1
1
1
1
1
1
1
1
1
1
1
1
1
1
1
1
1
1
1
1
1
1
1
1
1
0
1
1
1
1
1
1
1
1
1
1
1
1
1
1
1
1
1
1
1
1
1
1
1
1
1
1
1
1
1
1
1
1
1
1
1
1
1
1
1
1
0
1
1
1
1
1
1
1
1
1
1
1
1
1
1
1
1
1
1
1
1
1
1
1
1
0
1
1
1
1
1
1
0
1
1
1
1
1
0
1
0
1
1
1
1
1
0
1
1
1
1
1
1
0
1
1
1
1
1
1
1
1
1
1
1
1
1
1
1
1
0
1
1
1
1
0
1
1
1
1
1
1
1
1
1
1
1
1
1
1
1
0
1
1
1
1
1
0
1
1
0
1
1
1
1
1
1
1
