1
0

906
908
914
919
919
912
902
895
894
899
906
909
905
895
885
877
876
883
894
901
901
895
886
882
885
894
909
919
921
918
912
912
920
934
952
968
977
980
980
985
1000
1023
1023
1023
1023
1023
1023
1023
1023
1023
1023
1023
1023
1023
1023
1023
1023
1023
1023
1023
1023
1023
1023
1023
1023
1023
1023
1023
1023
1023
1023
1023
1023
1023
1023
1023
1023
1023
1023
1023
1023
1023
1023
1023
1023
1023
1023
1023
1023
1023
1023
1023
1023
1023
1023
1023
1023
1023
1023
1023
1023
1023
1023
1023
1023
1023
1023
1023
1023
1023
1023
1023
1023
1023
1023
1023
1023
1023
1023
1023
1023
1023
1023
1023
1023
1023
1023
1023
1023
1023
1023
1023
1023
1023
1023
1023
1023
1023
1023
1023
1023
1023
1023
1023
1023
1023
1023
1023
1023
1023
1023
1023
1023
1023
1023
1023
1023
1023
1023
1023
1023
1023
1023
1023
1023
1023
994
951
915
884
855
826
796
768
737
706
679
655
633
610
587
562
536
512
493
480
470
458
441
420
394
369
348
332
318
298
271
238
199
164
135
113
99
83
62
38
21
12
7
5
3
2
2
1
1
1
1
1
1
1
1
1
1
1
1
1
1
1
1
1
12
139
332
533
740
952
1023
1023
1023
1023
1023
1023
1023
1023
1023
1023
1023
1023
1023
1023
1023
1023
1023
1023
1023
1023
1023
1023
1023
1023
1023
1023
910
606
331
178
97
54
30
17
10
6
4
3
2
2
2
1
1
1
1
1
1
1
1
1
1
1
1
1
1
1
1
1
1
1
1
1
1
1
1
1
1
1
1
1
1
1
1
1
1
1
1
1
1
1
1
1
1
1
1
1
1
1
1
1
1
1
1
1
1
1
1
1
1
1
0
1
1
1
1
1
1
1
1
1
1
1
1
1
1
1
1
1
1
1
1
1
1
1
1
1
1
1
1
1
1
1
1
1
0
1
1
1
1
1
1
1
1
1
1
1
1
1
1
1
1
1
1
1
1
1
37
120
209
297
388
467
543
609
680
753
828
875
918
966
1011
1023
1023
1023
1023
1023
1023
1023
1023
1023
1023
1023
1023
1023
1023
1023
1023
1023
1023
1023
1023
1023
1023
1023
1023
1023
1023
1023
1023
1023
1023
1023
1023
1023
1023
1023
1023
1023
1023
1023
1023
1023
1023
1023
1023
1023
1023
1023
1023
1023
1023
1023
1023
1023
1023
1023
1023
1023
1023
1023
1023
1023
1023
1023
1023
1023
1023
1023
1023
1023
1023
1023
1023
1023
1023
1023
1023
1023
1023
1023
1023
1023
1023
1023
1023
1023
1023
1023
1023
1023
1023
1023
1023
1023
1023
1023
1023
1023
1023
1023
1023
1023
1023
1023
1023
1023
1023
1023
1023
1023
1023
1023
1023
1023
1023
1023
1023
1023
1023
1023
1023
1023
1023
1023
1023
1023
1023
1023
1023
1023
1023
1023
1023
1023
1023
1023
1023
1023
1023
1023
1023
1023
1023
1023
1023
1023
1023
1023
1023
1023
1023
1023
1023
1023
1023
1023
1023
1023
1023
1023
1023
1023
1023
1023
1023
1023
1023
1023
1023
1023
1023
1023
1023
1023
1023
1023
1023
1023
1023
1023
1023
1023
1023
1023
1023
1023
1023
1023
1023
1023
1023
1023
1023
1023
1023
1023
1023
1023
1023
1023
1023
1023
1023
1023
1023
1023
1023
1023
1023
1023
1023
1023
1023
1023
1023
1023
1023
1023
1023
1023
1023
1023
1023
1023
1023
1023
1023
1023
1023
1023
1023
1023
1023
1023
1023
1023
1023
1023
1023
1023
1023
1023
1023
1023
1023
1023
1023
1023
1023
1023
1023
1023
1023
1023
1023
1023
1023
1023
1023
1023
1023
1023
1023
1023
1023
1023
1023
1023
1023
1023
1023
1023
1023
1023
1023
1023
1023
1023
1006
1010
1011
982
944
916
886
868
855
839
827
838
848
844
825
805
787
777
770
782
786
788
777
771
767
761
754
752
747
754
765
784
776
755
750
749
737
735
738
747
764
763
767
772
768
778
789
785
783
786
794
793
791
790
798
805
804
812
813
809
811
817
816
825
840
847
849
836
824
820
817
824
832
826
832
844
855
869
876
885
911
897
898
889
885
886
892
900
895
896
898
893
879
878
880
874
873
872
875
886
899
896
880
872
884
894
907
904
894
893
887
871
868
871
873
878
877
878
865
847
844
856
864
864
861
863
855
849
849
863
881
873
852
854
854
860
853
837
832
839
840
825
825
833
837
849
838
830
824
837
839
845
826
801
788
793
809
817
809
813
814
817
811
806
807
807
802
794
779
775
791
809
816
808
799
809
822
821
819
804
793
800
799
790
782
772
774
769
766
769
781
794
786
788
785
775
766
749
749
755
753
747
752
753
750
742
743
760
771
762
737
720
719
727
754
789
826
885
953
1020
1023
1023
1023
1023
982
910
834
759
679
632
596
569
553
546
559
580
593
609
627
621
632
655
665
634
622
640
641
621
612
618
624
620
628
636
642
638
624
620
635
646
632
621
618
617
618
624
633
624
627
634
627
634
635
625
623
626
626
632
628
605
598
611
611
604
593
599
605
590
584
603
605
599
603
600
594
599
600
588
587
584
579
580
592
599
593
595
592
579
567
584
595
605
599
589
596
609
604
590
571
560
587
603
591
588
586
590
596
585
574
567
568
557
539
549
567
556
547
534
522
507
500
502
502
496
486
485
473
464
448
429
413
415
416
404
410
415
406
386
379
367
352
353
358
372
371
367
378
372
354
348
351
359
359
350
365
362
357
363
367
377
381
371
366
370
378
380
387
384
397
420
412
407
400
404
409
408
393
393
402
401
397
403
415
406
399
401
407
406
407
402
399
397
402
405
406
408
407
408
409
410
403
388
396
410
407
406
402
400
401
405
405
398
399
401
405
404
400
397
398
396
390
391
393
402
401
402
396
401
403
400
396
404
413
409
401
389
392
396
407
414
407
398
394
393
402
405
410
413
415
402
398
396
403
404
405
401
394
403
411
412
413
409
404
420
421
418
407
403
400
396
385
386
392
397
403
415
418
414
411
408
402
391
384
382
387
393
399
403
417
425
417
414
408
407
403
398
394
409
420
425
413
403
403
406
410
412
406
387
381
386
389
393
394
412
419
431
440
433
431
430
420
417
411
406
414
416
423
449
442
428
422
426
425
427
427
426
429
437
431
421
434
440
438
440
438
441
450
440
441
443
446
457
451
438
432
424
426
439
444
448
457
472
477
462
447
452
465
468
474
480
464
451
466
472
477
473
468
470
473
468
457
441
435
432
429
439
449
442
426
430
443
445
453
448
450
450
452
461
485
519
558
621
677
744
820
856
853
810
756
697
623
559
499
433
386
374
372
361
356
357
365
373
387
392
388
393
393
381
388
388
387
383
396
419
403
388
386
385
381
370
371
391
409
409
418
418
413
410
410
422
432
427
418
430
428
431
423
414
401
408
424
419
414
426
433
422
428
424
421
424
426
438
442
446
440
442
444
452
460
455
446
463
473
475
470
469
473
476
484
489
497
502
500
502
511
510
507
506
505
497
496
525
531
536
548
540
527
511
517
541
555
562
561
559
539
520
508
499
500
504
501
496
489
496
490
487
486
475
462
447
433
413
411
421
422
424
432
428
420
416
410
402
400
399
399
385
381
376
388
405
403
401
402
401
390
392
400
396
401
400
393
394
403
417
413
400
412
407
415
415
407
418
429
426
430
433
438
447
441
441
448
450
453
449
446
443
441
442
443
435
443
468
463
453
434
420
418
434
445
450
464
478
476
467
460
458
456
452
456
459
445
436
445
448
445
454
462
470
469
468
462
450
448
450
454
448
436
432
447
451
456
453
466
472
460
473
478
465
454
451
456
483
494
483
469
457
461
468
467
469
464
458
476
479
463
454
454
452
460
467
474
467
468
465
459
457
469
475
468
474
485
489
468
454
447
452
461
483
510
492
473
473
464
471
467
460
461
466
467
468
468
470
464
457
461
476
486
482
467
457
461
461
461
476
492
496
475
470
471
471
481
477
469
488
496
478
461
452
464
465
464
473
495
509
495
472
467
465
462
460
457
461
486
485
471
464
451
441
444
455
465
462
465
468
457
458
454
467
467
459
456
475
468
456
459
464
477
460
452
460
461
454
455
469
482
486
484
487
476
456
458
463
460
453
459
473
478
486
488
469
454
457
472
476
469
471
470
464
490
495
478
478
481
473
460
456
462
465
474
474
470
475
474
478
469
452
445
446
435
429
427
432
444
453
429
412
414
420
413
410
432
450
478
526
596
662
722
785
836
851
819
757
674
597
519
444
381
350
335
323
328
338
351
371
365
352
356
370
374
369
368
373
377
378
382
406
415
425
419
405
392
390
399
398
412
423
425
426
429
438
427
423
431
431
437
430
434
437
443
443
447
456
446
437
445
460
457
462
468
466
474
475
468
466
469
468
470
477
484
475
484
494
505
501
491
483
480
480
488
495
495
497
491
499
522
531
528
527
529
542
539
533
534
530
537
536
537
543
547
535
522
536
549
536
531
525
523
513
508
512
524
530
528
515
510
500
489
472
464
460
468
469
455
453
443
430
420
417
417
424
431
420
391
370
370
375
379
372
359
354
351
361
378
370
358
354
343
350
358
364
366
361
354
361
364
385
401
418
428
419
408
408
418
415
422
424
407
406
415
411
431
471
488
500
528
543
563
560
552
545
548
554
554
566
577
553
539
529
517
519
546
545
536
539
548
546
544
536
524
521
517
515
521
523
514
507
512
501
510
520
511
498
500
496
477
467
489
493
486
481
478
491
503
496
495
496
480
485
499
500
488
483
492
494
467
475
485
484
486
485
480
483
483
478
463
459
468
487
499
505
493
481
469
465
473
472
472
475
480
505
500
482
479
468
481
503
495
482
469
466
475
478
471
467
480
503
501
491
483
481
487
498
496
487
472
460
481
491
486
490
491
496
481
468
469
475
484
489
489
492
493
489
490
489
490
487
484
483
476
468
474
477
469
466
469
483
496
496
490
486
468
460
462
466
477
485
473
464
470
469
469
468
471
475
469
445
427
428
418
417
414
414
432
434
441
446
440
445
452
446
453
453
436
427
433
444
451
452
463
461
465
471
470
472
474
464
451
448
447
453
468
481
479
467
462
464
459
454
471
462
450
440
442
448
458
461
466
469
466
462
474
480
482
483
475
482
478
480
491
491
491
495
507
509
508
499
491
491
494
498
497
497
499
515
514
510
513
502
499
506
493
478
471
469
472
474
464
464
463
463
458
448
445
451
456
463
459
467
481
501
546
601
682
759
817
863
890
861
806
737
661
587
504
439
391
360
359
370
370
375
378
397
401
403
406
415
434
440
428
428
440
451
456
458
444
434
440
458
463
458
456
477
479
490
490
483
473
465
469
480
490
493
479
465
479
474
480
485
489
495
498
502
499
505
506
515
521
514
511
507
506
508
522
526
537
540
540
524
514
531
531
538
549
544
547
554
555
551
535
525
520
529
556
565
567
556
560
572
582
568
562
562
562
563
571
577
580
580
568
569
578
576
576
574
562
560
576
562
565
566
569
570
563
556
545
526
514
498
487
488
479
470
473
463
447
440
435
434
428
416
413
404
393
383
377
387
393
391
390
379
383
383
365
379
383
380
380
385
380
377
379
395
399
389
375
380
403
424
428
426
423
437
447
437
436
435
445
456
455
452
448
458
459
448
449
444
446
445
456
473
478
474
465
460
462
470
465
471
473
458
449
456
476
473
479
494
493
483
472
463
464
466
476
479
468
462
461
477
482
476
477
472
472
469
484
492
488
478
471
481
479
477
482
486
484
473
468
473
479
480
474
481
482
486
503
510
493
484
496
494
486
488
488
488
485
481
483
486
484
489
498
495
481
463
464
497
524
505
493
483
482
468
476
486
491
495
498
496
495
488
484
483
478
493
508
515
520
545
560
524
499
503
501
490
479
484
491
498
509
507
503
502
500
490
496
499
499
496
503
498
495
503
516
515
496
504
509
500
502
496
514
508
488
486
492
496
496
493
494
497
506
508
517
524
527
510
501
496
485
485
484
492
506
501
488
495
509
510
498
502
498
497
495
485
481
487
499
503
496
500
509
508
500
503
497
497
503
504
506
507
510
512
504
489
480
481
490
490
506
506
501
505
502
501
504
498
511
524
528
528
517
504
505
518
512
506
505
508
514
528
536
535
522
522
509
501
508
517
529
535
538
536
532
522
518
526
534
532
520
508
499
507
504
490
486
491
498
502
507
519
510
490
478
491
528
564
607
673
748
824
881
908
903
860
803
725
647
575
505
446
408
394
380
381
396
402
409
424
442
456
466
473
471
472
463
440
432
450
462
460
466
473
484
501
502
498
493
487
481
473
478
492
491
491
499
504
493
494
497
499
505
499
493
485
483
492
507
518
504
505
525
517
506
508
521
526
523
519
520
537
538
532
521
519
526
528
528
528
531
536
541
548
553
552
560
570
570
575
580
564
551
549
557
552
553
556
572
574
574
585
590
592
596
595
594
589
587
580
573
582
581
596
591
584
572
562
557
557
556
550
549
540
525
515
502
496
499
487
466
456
452
443
432
428
430
431
432
426
417
409
405
401
418
416
410
397
378
384
393
401
395
402
413
415
411
416
422
416
411
416
428
439
442
439
431
440
462
462
458
449
450
462
486
482
461
470
473
470
459
460
456
453
460
483
494
501
501
496
497
498
503
502
488
488
486
501
500
515
514
494
475
475
484
497
499
496
489
479
470
466
471
477
477
475
508
517
503
489
482
488
497
482
476
470
474
477
483
497
504
517
515
496
486
493
508
508
516
512
503
501
512
498
486
491
495
506
516
521
525
518
514
508
505
507
515
514
510
518
526
528
528
530
524
517
506
503
499
511
532
540
534
527
526
535
533
523
525
523
520
532
549
545
535
537
552
547
551
566
555
532
514
504
509
513
517
522
539
533
521
527
530
526
524
525
530
532
528
525
528
528
526
523
517
519
528
527
512
523
538
562
558
529
512
512
519
522
525
527
525
522
519
518
517
512
517
517
525
533
534
528
527
532
522
510
521
530
537
532
529
527
526
530
533
536
525
511
509
525
536
547
542
521
509
504
508
526
545
556
558
557
538
531
531
529
505
493
498
510
528
526
530
537
537
529
525
521
526
535
529
527
546
548
543
549
535
522
525
525
537
553
566
574
559
538
531
536
541
560
561
555
562
562
562
554
549
546
543
545
534
519
514
519
519
516
510
500
492
495
506
503
487
497
512
503
495
495
497
516
556
585
638
701
773
839
886
911
890
846
782
702
620
556
487
435
399
387
404
416
428
448
456
438
426
422
430
446
457
449
428
423
435
450
454
466
468
468
479
484
475
469
467
467
480
490
485
482
494
497
492
483
491
505
504
498
498
509
496
487
488
487
492
501
518
525
508
498
500
508
515
520
530
541
538
535
535
543
540
540
530
534
540
547
546
546
537
533
535
538
543
552
559
564
561
565
571
576
569
581
597
595
588
592
585
576
574
604
618
600
602
614
596
585
579
584
579
586
585
577
577
573
562
555
560
547
541
546
544
532
522
511
516
509
499
497
482
461
465
479
480
463
439
435
441
435
421
415
422
423
428
431
424
419
419
417
418
430
433
434
437
438
445
452
442
437
452
464
454
455
459
459
462
470
475
472
462
459
463
471
487
500
491
477
470
462
467
481
495
497
490
487
491
496
499
510
522
528
519
504
500
497
497
495
496
500
508
515
504
492
509
522
532
518
501
494
495
493
494
501
510
504
502
499
496
506
509
502
502
496
504
504
495
499
502
491
493
502
511
507
509
514
508
504
499
490
493
502
515
510
499
504
503
506
503
494
490
500
508
502
503
509
505
493
487
507
504
500
491
494
498
505
507
513
530
523
507
502
491
493
494
498
506
505
501
494
488
489
490
523
534
512
497
499
496
492
496
504
514
509
503
510
521
509
511
529
534
532
533
517
513
503
495
500
504
495
490
500
509
500
501
515
522
520
512
507
507
500
497
507
502
518
531
529
538
524
509
509
505
512
531
533
536
518
496
487
490
492
496
511
508
498
499
517
539
537
532
523
506
500
497
491
497
505
524
537
540
536
528
519
514
516
518
517
519
516
520
524
530
544
545
538
532
531
544
551
541
543
536
522
520
540
550
546
534
531
527
534
539
535
536
540
535
538
550
555
540
533
534
537
546
561
574
584
574
553
533
527
518
541
551
541
548
541
521
512
506
508
499
494
498
494
492
497
502
503
499
492
480
494
522
542
579
635
694
754
808
862
890
887
873
822
746
665
593
521
460
414
390
390
397
407
415
424
426
430
443
459
457
454
449
441
448
459
455
460
449
452
463
468
477
483
481
494
495
494
483
482
474
463
471
477
474
485
487
482
489
501
505
495
495
483
471
473
485
507
514
505
508
535
547
533
507
503
518
528
531
532
522
512
505
505
527
544
553
550
548
548
529
518
522
535
548
537
526
524
525
539
544
552
556
574
590
584
575
573
582
586
581
576
575
569
566
571
576
586
584
588
587
581
580
580
563
553
553
547
545
528
514
518
529
535
523
506
504
496
477
457
452
450
450
449
445
437
433
441
419
410
415
417
416
415
424
433
435
429
422
412
417
412
425
421
405
415
433
437
431
432
440
439
441
454
456
455
448
445
445
462
455
470
496
486
470
464
466
466
471
481
490
488
494
492
500
500
499
494
485
472
472
477
474
477
489
489
491
491
487
485
499
505
506
511
513
501
481
478
480
478
492
500
501
495
499
500
487
474
465
476
493
496
498
500
498
489
494
505
496
490
510
514
490
485
484
494
511
526
527
512
493
477
481
488
495
505
508
495
493
494
504
509
501
498
512
510
505
508
522
518
516
515
505
502
505
500
497
499
514
532
522
514
513
509
510
510
509
501
505
510
505
507
512
515
519
537
537
521
516
513
512
505
509
504
508
518
516
514
512
512
519
522
522
518
525
525
522
526
526
526
531
530
539
540
534
527
519
517
516
530
549
552
538
533
542
542
529
520
510
508
510
507
513
517
520
509
507
505
512
522
513
510
517
508
494
495
507
519
529
527
514
501
504
512
518
523
524
525
520
498
493
489
493
501
504
503
519
521
505
508
528
505
479
482
494
502
508
508
509
511
516
518
512
515
524
518
518
517
514
524
538
526
521
515
501
499
517
530
520
521
540
546
552
532
507
507
510
520
516
508
503
497
499
506
495
495
484
487
497
504
496
479
477
491
496
490
486
508
524
541
585
653
716
783
854
893
893
855
793
726
653
582
512
454
416
392
364
347
368
398
406
415
423
433
439
440
437
447
453
453
443
448
458
461
464
458
459
457
459
468
478
481
484
480
476
484
494
495
498
489
478
477
476
481
501
512
516
499
493
499
494
485
495
514
527
533
525
517
523
524
524
525
527
525
529
531
535
535
534
537
539
536
543
551
548
554
566
568
563
567
565
563
560
562
575
585
591
588
585
599
597
600
607
606
608
601
602
612
613
607
609
601
588
582
591
596
593
595
589
567
561
569
573
567
562
549
531
513
511
518
526
515
488
490
480
468
459
452
449
462
484
481
465
449
429
409
411
426
422
429
420
421
418
414
421
426
431
438
448
448
442
436
423
420
423
438
452
458
456
466
477
484
481
465
462
464
462
457
461
465
470
483
480
488
493
496
501
505
498
491
490
493
497
495
495
489
478
474
476
501
528
516
481
465
469
477
492
499
505
512
510
495
482
471
487
487
472
477
496
499
492
494
499
505
500
499
505
500
505
514
517
509
509
494
476
484
501
511
510
511
513
516
516
506
496
510
519
510
500
502
499
493
500
503
502
506
504
512
526
523
516
509
515
506
501
503
500
503
514
521
517
512
527
531
520
517
504
501
506
512
515
508
501
498
508
522
534
530
520
528
506
495
496
492
500
512
503
496
495
505
512
518
522
532
529
522
524
517
502
498
504
511
518
527
527
523
507
496
501
512
530
530
532
518
513
507
509
516
511
503
512
526
534
525
522
520
523
519
507
517
534
516
508
505
514
522
518
521
525
514
525
533
517
511
517
509
510
503
502
495
494
503
512
516
520
524
517
512
511
512
506
526
523
520
526
523
524
527
523
530
540
542
535
523
515
523
536
541
535
532
530
535
542
541
540
544
536
520
529
535
527
524
536
522
509
520
519
514
516
518
520
507
504
506
497
486
487
480
473
484
505
530
562
616
682
750
818
878
920
925
867
793
722
640
566
495
447
419
393
382
384
384
391
413
443
451
451
447
445
450
452
463
471
464
456
463
459
464
468
469
476
481
480
478
471
468
478
490
497
490
484
478
489
492
491
497
500
498
501
500
494
492
495
498
497
498
505
499
496
512
524
511
493
500
516
526
525
521
519
519
519
526
536
542
547
547
548
538
534
556
578
577
566
562
566
574
569
558
551
551
568
575
571
569
579
580
570
570
588
588
583
590
602
604
600
583
578
580
587
581
572
565
566
547
553
559
556
549
539
522
512
528
528
510
496
492
491
481
463
454
449
446
445
435
422
424
423
416
416
425
420
408
412
409
408
409
408
408
420
419
411
409
426
434
431
430
429
440
437
434
442
433
430
443
469
480
490
485
484
482
470
458
454
473
480
479
486
494
492
491
484
477
479
487
496
491
492
489
491
497
497
488
493
490
481
492
496
501
499
507
508
499
498
513
514
510
493
482
466
463
472
475
480
487
494
503
501
495
488
492
499
494
478
481
482
476
493
500
501
500
487
496
506
504
502
500
492
481
479
471
478
492
499
501
496
499
502
502
512
516
512
500
498
488
493
503
524
526
520
533
535
539
515
513
521
517
508
498
489
493
507
519
528
519
503
495
499
496
504
508
507
508
510
517
522
523
515
509
504
511
517
520
528
530
515
509
510
516
521
521
524
505
498
494
491
496
504
515
521
515
526
533
527
515
504
497
494
499
509
513
508
510
513
514
517
522
520
514
519
537
544
516
499
502
506
508
504
514
529
536
520
503
498
506
502
499
498
507
528
533
531
529
521
518
517
518
517
517
514
509
526
518
514
522
528
526
530
529
530
551
548
540
518
513
516
518
533
540
541
543
541
539
524
506
505
516
523
535
537
539
535
533
539
547
554
535
532
528
525
522
505
497
495
501
504
494
489
485
480
485
500
512
509
495
488
488
480
480
494
527
577
649
727
809
862
893
898
862
809
746
670
602
542
467
425
400
395
395
394
398
413
427
434
444
450
443
440
451
472
470
461
448
443
445
446
454
469
483
478
459
447
448
456
460
466
484
475
473
481
487
491
496
492
482
481
491
526
528
519
504
486
484
484
500
512
518
520
522
519
526
527
518
507
515
527
519
520
518
519
526
527
535
544
554
553
540
544
555
556
548
552
566
565
563
557
549
547
548
561
573
581
581
584
584
587
588
584
589
583
594
589
577
581
596
598
607
605
591
579
569
553
547
548
548
553
554
541
535
535
508
489
488
481
471
471
471
464
455
447
444
446
467
446
438
443
418
399
399
404
400
393
389
391
397
407
415
423
435
449
442
432
422
428
431
435
433
436
438
431
428
429
429
439
453
465
494
496
464
448
448
447
449
446
453
476
495
502
495
488
481
478
497
495
486
483
478
473
480
481
472
483
504
519
495
480
483
491
491
487
489
495
495
481
471
477
479
474
475
479
481
475
482
505
508
492
490
497
501
498
497
496
487
484
507
528
503
487
494
493
491
484
489
496
489
495
503
507
520
517
511
498
489
502
507
508
507
508
508
507
496
491
495
504
508
514
512
510
507
535
539
531
530
508
489
481
478
483
494
501
504
515
520
526
525
522
524
517
515
512
517
519
509
500
499
504
507
506
506
512
523
527
533
536
529
517
507
499
494
504
509
515
506
504
509
516
521
525
520
515
524
527
519
516
511
517
527
521
521
515
510
505
512
512
511
527
529
512
497
501
509
510
510
506
517
521
514
508
504
511
514
529
540
527
507
508
507
511
512
518
518
513
514
519
520
523
524
525
543
548
524
511
512
519
516
509
507
507
510
505
512
512
515
516
516
524
527
520
519
519
522
527
533
536
535
538
536
538
533
532
529
526
527
531
548
541
532
528
537
553
543
537
544
544
546
544
555
555
535
519
506
510
500
488
485
487
491
488
476
477
485
492
502
513
501
486
485
503
532
586
654
723
786
846
908
928
904
848
793
726
659
581
489
421
375
363
368
370
388
413
438
447
445
442
437
446
452
444
445
455
458
457
465
468
460
461
475
494
487
484
478
478
467
462
469
486
504
508
518
519
503
480
466
462
470
483
503
517
523
530
522
512
523
529
547
540
530
526
534
537
529
531
528
530
532
539
550
556
568
576
572
568
568
572
576
591
588
590
596
591
582
598
597
590
590
599
608
619
616
615
615
611
617
625
627
629
624
625
626
625
630
625
624
622
625
632
628
632
621
610
601
597
603
601
588
571
554
546
541
543
538
527
519
513
498
480
474
477
475
467
460
460
454
456
444
437
433
431
428
454
460
442
425
417
415
411
414
425
433
443
434
433
441
443
452
460
464
464
464
448
440
451
455
460
478
496
511
489
468
460
461
476
479
468
458
460
468
485
502
496
483
479
485
487
499
498
489
502
486
471
466
476
485
484
486
483
487
487
485
488
493
498
495
482
474
478
483
480
473
469
476
481
476
460
454
467
484
486
481
486
486
480
469
475
467
464
482
480
469
470
471
478
481
473
472
477
486
484
480
490
494
498
492
493
496
495
499
504
501
490
490
493
497
488
491
494
497
503
507
505
496
490
487
491
489
496
499
497
495
505
514
510
517
510
501
497
497
496
490
491
494
487
485
499
509
506
501
517
528
511
508
508
516
522
520
510
511
509
502
494
500
504
499
496
499
505
505
501
506
508
519
526
520
508
504
490
487
500
504
486
506
505
488
499
501
501
503
500
490
488
488
507
525
524
516
515
513
509
510
510
511
508
508
504
501
501
506
510
506
499
509
501
484
497
516
524
524
528
526
521
513
504
498
505
508
519
529
527
527
521
520
524
531
524
512
520
525
523
516
503
499
524
531
518
518
524
530
528
522
521
521
514
503
511
499
499
496
497
515
519
510
502
502
498
489
482
489
499
490
483
483
528
573
604
662
751
832
884
910
899
846
778
701
608
529
459
413
385
367
363
374
387
404
409
420
431
436
441
443
438
432
443
448
464
470
471
467
453
453
463
470
481
484
482
485
492
493
495
491
490
491
489
491
492
498
491
492
495
488
474
473
489
501
503
500
508
513
513
516
514
515
519
505
509
533
532
528
527
538
539
542
538
538
544
549
552
561
560
550
543
542
543
548
545
545
546
549
554
564
561
556
558
569
590
592
587
580
586
600
598
599
604
599
595
602
595
590
588
583
577
566
562
560
561
558
547
540
521
524
527
516
510
516
510
487
473
465
461
450
438
432
431
434
428
431
438
448
438
415
395
382
386
402
411
413
424
415
399
392
412
425
427
426
425
410
405
415
415
430
441
451
449
445
447
454
454
447
456
464
464
457
446
448
462
471
490
497
498
483
464
473
476
485
495
492
493
500
495
488
503
490
477
471
475
488
497
503
499
490
477
469
469
475
477
479
479
476
468
480
497
508
496
478
480
481
474
483
484
483
480
486
481
482
475
482
494
490
488
485
485
500
514
516
503
493
479
482
488
499
503
496
496
500
485
478
485
498
495
507
525
514
517
517
509
504
507
518
512
498
496
499
496
488
492
512
513
500
492
508
514
513
515
505
502
512
524
520
516
508
504
510
506
506
516
519
513
514
519
521
495
493
494
492
499
499
512
518
510
512
527
528
527
516
509
510
518
512
506
510
521
524
525
523
519
510
504
506
509
513
506
510
508
510
520
526
517
519
519
522
519
522
516
515
520
525
529
527
523
516
512
524
515
509
515
522
520
515
512
514
515
518
529
527
523
517
509
521
524
523
531
534
520
511
527
534
535
537
537
540
538
545
539
543
544
539
534
535
534
537
543
545
543
538
539
538
537
533
528
524
515
515
516
523
525
525
505
493
495
490
484
488
496
499
492
490
493
525
557
589
640
701
765
825
880
907
897
856
794
716
626
550
471
421
392
382
391
385
383
403
424
434
445
450
447
446
450
449
456
480
481
466
457
454
464
473
471
464
473
479
483
472
467
467
477
493
493
492
479
485
490
490
492
490
494
499
502
506
499
499
503
504
507
511
505
513
508
499
506
504
514
513
511
517
516
525
533
543
548
538
524
517
519
525
536
544
548
548
542
546
549
559
562
565
565
564
568
580
566
562
558
559
570
578
597
602
587
580
581
589
595
600
596
583
579
579
580
581
586
587
585
578
569
561
551
538
534
515
510
505
507
498
486
493
487
460
442
449
448
430
425
430
426
426
432
415
407
407
409
403
407
404
400
401
411
417
424
424
429
436
422
428
445
462
452
448
455
456
455
456
460
461
450
450
464
470
456
452
470
479
475
471
473
476
477
484
486
489
496
505
502
500
492
494
494
507
506
501
499
497
490
489
495
497
497
494
481
485
507
501
487
495
495
490
494
502
511
510
504
499
491
490
492
506
499
482
487
483
496
509
511
506
502
494
493
496
509
529
539
523
515
496
486
490
496
495
505
514
512
510
514
504
500
522
535
521
494
498
507
508
511
514
512
508
502
501
501
499
499
496
503
509
514
508
509
505
502
507
507
506
521
524
507
502
505
507
511
512
512
513
507
503
502
510
510
510
515
517
514
517
525
519
508
513
524
522
524
520
518
519
519
515
517
510
501
504
514
517
516
516
511
497
493
500
507
523
518
505
500
505
514
516
523
524
521
525
524
527
524
520
516
507
502
504
512
503
506
509
511
506
506
509
510
521
526
515
511
508
510
502
506
512
513
528
534
527
528
523
512
512
520
528
542
545
533
526
527
533
536
529
524
531
540
540
534
537
540
536
543
545
547
541
531
533
533
529
524
517
518
515
507
510
504
523
537
503
487
487
485
482
479
484
487
491
502
522
547
582
627
684
755
827
886
919
907
856
801
718
628
561
501
449
412
397
401
397
398
409
439
454
446
443
448
455
455
449
455
471
480
475
463
465
469
469
455
437
445
460
473
497
510
498
496
487
478
477
463
463
489
497
500
493
496
497
502
498
497
516
520
516
497
488
493
508
511
516
524
518
512
516
530
539
543
551
532
528
534
535
537
542
544
546
541
543
549
556
548
557
575
567
558
563
573
577
584
587
586
584
579
573
577
584
584
590
587
587
595
596
592
585
585
599
615
610
600
580
573
569
570
566
556
540
541
545
548
534
515
517
514
491
482
482
469
460
458
458
458
448
436
424
409
416
420
426
429
422
415
418
410
399
392
403
417
413
416
426
430
430
424
428
435
436
440
439
432
433
436
449
466
466
457
453
473
467
456
458
466
479
494
485
463
461
476
478
484
487
486
488
487
485
483
485
488
490
506
500
485
484
487
488
489
494
503
509
506
499
495
485
481
486
488
492
492
488
493
503
497
494
502
509
495
489
486
482
485
490
482
485
489
483
492
503
506
513
512
519
517
514
504
492
493
502
517
509
491
478
486
505
513
503
499
497
494
492
496
495
496
496
505
510
513
502
501
504
508
508
504
497
508
528
515
501
487
483
494
506
496
502
519
514
515
522
530
526
505
487
480
491
498
503
512
522
519
509
504
507
520
517
513
509
516
512
503
493
496
508
514
518
516
535
543
541
514
499
500
506
503
495
497
521
528
519
513
491
501
515
508
500
501
504
504
503
507
508
515
519
520
518
508
496
502
512
505
504
501
499
499
497
497
513
529
516
512
510
518
529
525
515
509
512
522
518
505
504
510
519
521
513
519
516
504
504
511
525
531
534
538
549
561
540
516
531
533
519
501
500
508
514
525
530
531
532
543
548
543
535
537
532
532
526
522
514
508
508
506
509
509
501
504
512
497
490
489
492
489
484
481
482
512
557
592
624
675
752
828
885
914
912
873
818
748
667
584
513
464
426
398
383
381
396
406
413
420
423
428
440
452
450
450
475
470
458
467
472
467
476
476
471
474
477
486
487
488
475
473
488
500
499
504
513
499
499
502
504
501
497
496
500
510
521
520
517
522
518
515
529
527
512
507
513
526
542
538
537
540
528
530
539
554
559
545
542
545
536
542
552
558
570
571
576
589
584
576
578
571
563
553
563
590
596
595
596
610
618
605
596
592
599
602
597
604
608
600
595
593
586
587
590
592
596
581
574
571
556
551
559
561
557
541
525
516
514
505
493
492
493
492
478
467
458
445
435
433
443
441
436
440
443
440
433
431
432
426
423
428
436
439
433
428
425
428
430
431
428
428
446
448
442
444
448
453
458
466
469
474
479
472
462
467
475
494
493
482
486
485
487
485
479
473
486
492
485
478
487
488
487
484
487
498
499
498
511
516
506
484
470
475
489
492
486
505
509
490
479
479
485
486
490
488
483
485
488
488
491
494
495
497
496
500
516
518
500
489
479
481
484
496
491
479
482
495
504
508
503
498
495
493
482
479
487
489
494
485
486
489
493
498
505
503
510
510
510
506
507
504
502
510
519
507
503
497
500
505
506
501
505
498
490
492
494
502
510
512
526
513
500
498
498
503
507
502
491
509
524
510
519
520
527
514
500
498
508
518
515
499
506
523
533
521
504
505
501
494
496
504
501
501
514
530
537
527
505
510
520
523
522
518
522
514
505
508
510
518
523
529
529
514
503
496
509
522
517
510
499
508
509
516
513
501
507
525
535
534
506
496
515
517
512
520
523
526
519
506
503
509
516
514
514
519
518
516
518
517
512
515
521
508
519
538
528
517
519
526
538
541
548
545
526
514
516
524
519
533
531
527
534
540
552
550
546
537
532
525
510
510
512
500
497
520
526
507
497
504
510
511
513
514
528
506
501
495
496
506
514
560
614
672
738
807
869
902
903
858
785
719
639
570
489
434
401
380
375
369
372
405
426
422
431
433
438
452
464
454
438
438
466
478
472
470
467
469
470
471
475
478
477
487
495
496
507
498
484
486
488
501
513
498
487
486
501
515
501
487
499
520
517
503
496
491
504
512
510
514
514
516
518
527
529
523
529
534
539
537
542
536
522
513
529
544
553
552
541
539
531
525
537
546
560
563
570
581
595
594
586
586
587
589
597
599
599
596
591
596
595
598
597
590
602
608
593
596
582
574
571
563
550
546
552
549
547
552
566
559
531
500
478
468
466
466
466
461
456
452
448
439
431
435
434
426
413
406
395
406
408
400
397
398
414
420
405
406
409
417
430
427
425
427
426
440
443
432
428
431
445
448
445
448
453
463
463
454
451
448
452
470
475
478
480
468
472
472
471
480
485
477
475
477
474
469
465
486
488
491
492
495
480
481
500
499
480
473
489
489
487
492
493
491
486
484
483
492
488
488
496
498
488
476
476
465
460
462
473
476
479
476
482
508
508
495
491
485
488
494
490
496
495
485
474
488
500
500
497
504
496
496
495
494
484
480
492
498
493
491
492
498
494
482
480
477
489
502
499
502
507
514
526
529
533
524
501
500
506
508
512
527
514
492
487
495
513
523
508
506
506
509
506
514
512
505
516
526
517
514
508
512
508
493
493
495
500
499
504
503
491
499
516
518
511
513
514
514
508
509
510
498
498
514
512
507
512
510
517
522
531
543
538
522
516
512
516
516
528
525
511
505
513
518
514
504
502
499
497
490
501
516
518
512
508
511
517
506
504
510
524
521
510
516
530
519
506
497
484
492
506
518
526
527
526
534
538
536
540
540
526
519
525
533
540
542
538
533
526
530
521
521
529
527
527
525
525
533
535
530
535
532
531
513
497
490
489
488
497
509
513
508
504
508
510
508
496
491
486
487
499
531
564
614
673
740
831
886
894
890
859
799
726
647
575
500
439
399
383
391
399
410
419
429
437
430
431
441
442
446
446
448
448
451
452
450
457
463
456
462
468
465
466
468
474
486
490
495
486
483
496
504
500
487
487
487
489
498
494
490
490
493
509
517
510
497
485
486
506
516
509
509
506
501
505
514
526
536
531
533
536
528
530
527
526
526
527
535
549
555
563
561
558
550
552
557
564
571
572
561
573
581
590
594
588
578
570
575
588
599
599
593
601
608
587
571
569
577
583
589
582
578
571
559
551
547
557
556
534
523
513
504
503
506
497
481
473
472
470
457
441
435
426
429
421
430
441
420
411
400
388
403
421
424
420
415
414
411
414
414
421
420
422
421
428
423
424
439
454
464
448
445
452
467
465
453
442
444
455
465
477
469
470
468
454
456
475
477
482
486
482
483
491
502
503
503
509
505
497
510
516
495
481
484
494
496
490
490
484
480
476
476
487
485
483
493
504
505
507
506
501
498
492
494
499
503
501
498
497
489
489
499
511
508
502
502
509
521
522
512
499
501
501
496
500
500
510
512
496
486
490
504
504
503
503
500
497
497
513
504
511
510
516
512
503
492
494
507
519
522
525
529
522
508
505
506
499
506
513
527
533
518
503
502
500
503
509
509
509
516
516
524
519
517
516
510
519
528
531
529
527
514
494
492
509
517
515
517
508
504
497
500
508
518
528
521
518
527
527
534
529
523
516
514
525
528
522
520
511
507
514
515
515
509
502
515
525
520
517
530
542
541
525
516
510
500
497
496
503
508
509
513
521
519
514
521
521
519
513
504
509
532
537
531
532
530
524
515
523
532
545
535
527
516
501
491
498
508
516
516
519
529
530
519
511
520
524
527
529
530
523
516
524
534
539
533
517
530
534
524
534
532
529
537
547
543
541
540
539
532
538
548
543
546
546
531
531
537
538
543
543
528
522
528
528
527
516
504
501
503
500
497
495
502
512
487
477
487
494
499
513
558
606
661
721
801
871
921
931
888
824
765
698
618
540
482
428
406
396
393
397
414
426
431
448
450
454
450
448
455
461
459
460
450
451
453
449
449
449
441
437
445
455
465
486
501
493
484
476
470
469
473
492
503
492
489
496
494
494
503
509
517
527
529
516
503
499
509
516
517
510
516
505
501
501
503
517
539
540
528
526
537
550
551
551
555
546
546
544
546
552
560
567
563
566
564
566
585
590
581
578
583
577
588
595
595
593
595
588
587
592
600
604
599
597
593
593
592
586
592
598
589
581
574
561
548
544
545
542
539
524
514
498
491
487
476
467
463
470
483
463
462
462
446
430
430
441
424
407
401
391
394
405
406
417
416
403
405
417
416
410
422
431
428
426
421
414
418
422
422
432
442
448
452
466
474
465
460
456
460
458
457
463
472
476
468
476
489
483
475
479
486
492
491
503
496
489
493
493
502
495
489
485
486
485
487
488
499
502
504
506
507
497
496
500
501
500
489
485
476
490
494
501
492
491
498
500
502
509
520
510
487
480
485
502
499
493
486
488
493
505
499
487
495
498
487
486
493
501
501
499
494
492
500
516
516
517
506
505
498
520
508
492
489
494
496
513
526
528
517
515
518
511
512
517
513
514
513
509
509
508
510
521
519
509
506
513
518
510
509
507
505
505
510
522
519
512
504
501
504
520
520
518
525
519
511
509
513
521
528
515
518
526
523
530
522
515
510
512
509
509
512
528
523
503
493
496
509
529
537
529
518
518
499
516
513
518
520
520
522
521
521
514
505
509
511
512
521
531
530
520
508
512
515
515
525
526
525
523
529
523
509
513
511
506
508
501
496
498
496
497
500
504
528
540
522
515
518
522
522
517
514
508
503
505
514
522
514
515
527
516
519
528
532
527
525
521
525
529
529
525
527
520
520
526
523
528
526
523
539
538
526
525
526
523
527
537
555
550
542
548
562
552
528
521
527
531
526
521
518
509
498
506
505
502
496
501
506
501
496
493
500
509
507
499
494
497
535
578
626
697
776
858
906
932
919
866
794
719
638
566
495
445
416
395
387
389
396
413
417
414
419
429
432
432
439
452
460
454
460
464
455
450
463
472
480
481
469
461
457
462
468
473
467
476
495
487
494
488
483
486
496
502
502
499
499
497
507
511
508
506
512
522
520
505
499
504
513
526
521
517
514
526
525
532
547
543
539
541
543
546
556
547
545
552
556
560
545
548
550
553
563
562
559
564
568
565
581
588
588
590
604
609
597
597
593
592
604
597
597
609
611
608
599
592
585
571
565
569
578
576
574
573
558
543
536
531
533
531
520
513
503
485
459
447
432
423
430
439
438
429
423
427
434
429
412
401
405
408
409
409
395
391
398
402
420
434
432
424
422
428
437
441
438
436
446
457
451
444
437
440
439
439
448
463
480
474
470
481
481
485
470
460
468
474
480
473
476
487
483
482
481
491
488
481
487
508
510
485
480
485
488
486
486
488
497
494
487
495
495
490
488
498
508
505
500
499
493
490
482
480
477
484
486
499
517
504
494
490
491
493
490
486
488
490
499
493
495
491
496
513
518
509
511
507
493
493
490
490
492
496
500
501
505
508
517
508
499
506
497
494
496
493
498
499
490
480
484
505
501
495
502
518
526
519
527
530
528
529
509
506
507
493
487
497
512
506
484
482
494
504
501
498
502
507
515
507
505
509
512
513
507
497
498
504
520
524
524
523
516
512
507
498
496
501
512
517
512
513
521
528
524
515
505
493
504
501
497
504
503
518
516
507
508
506
503
498
494
499
514
523
519
523
533
526
521
517
509
513
513
518
515
513
518
512
514
521
520
516
513
521
523
513
505
498
496
498
491
499
509
508
510
506
511
514
526
524
519
521
523
520
517
521
520
515
519
515
523
534
549
541
525
525
524
518
520
522
526
531
528
527
539
549
551
545
534
525
525
526
532
536
544
548
531
531
526
528
527
529
525
514
506
505
513
514
517
522
524
517
525
512
487
485
486
484
489
492
502
533
583
648
708
768
827
872
897
871
825
765
692
612
542
482
437
409
386
367
379
407
414
423
420
424
441
466
462
453
461
463
462
454
453
464
473
473
468
465
485
494
489
494
495
488
476
482
492
501
498
497
502
507
509
518
519
508
509
503
497
499
505
508
506
503
503
523
539
523
532
539
527
522
527
539
536
539
542
530
521
521
523
532
546
556
561
564
557
548
557
570
569
560
569
563
560
572
578
582
580
583
590
613
615
600
592
595
602
590
600
610
607
607
598
604
607
587
587
594
579
573
581
596
589
576
563
541
524
524
529
523
516
527
523
501
491
478
469
476
469
448
429
432
437
433
420
406
403
405
409
404
405
404
402
413
425
423
429
416
407
418
432
437
437
451
453
440
452
456
436
420
425
443
455
460
457
448
448
450
455
465
473
474
474
475
481
489
486
482
487
489
474
471
484
503
496
494
497
496
486
484
473
475
491
489
489
489
497
493
482
487
479
475
479
479
486
492
487
498
501
495
487
480
486
494
492
480
475
481
490
495
489
482
480
482
485
486
491
488
487
497
513
513
499
493
505
505
494
501
496
492
488
490
501
507
504
505
519
507
492
489
496
509
511
506
493
491
494
505
511
498
482
486
500
522
522
521
526
508
486
492
503
513
514
504
511
503
491
489
508
528
531
533
523
504
504
514
511
502
505
508
530
533
513
502
498
497
505
510
508
506
513
502
502
514
520
526
515
509
505
503
516
514
495
483
489
501
515
522
520
526
526
525
529
527
526
525
527
528
522
524
525
529
520
515
506
511
506
497
503
526
522
512
509
509
514
512
508
508
517
509
501
495
499
503
513
519
504
498
512
525
528
527
526
520
520
525
528
527
527
530
512
500
496
509
526
513
513
512
525
523
529
531
523
526
526
523
533
546
541
526
516
519
516
517
520
530
530
535
541
533
517
516
537
551
529
514
508
511
515
506
500
492
497
513
516
509
503
509
488
487
498
512
513
503
500
503
507
520
541
597
652
698
763
824
875
893
865
807
738
675
624
560
486
426
399
391
391
393
397
398
420
439
429
434
439
444
448
463
471
469
464
478
473
471
479
468
478
470
454
472
486
493
495
487
485
476
473
487
504
491
490
501
511
509
505
508
505
497
501
511
513
509
502
499
509
515
501
505
525
522
525
534
527
522
528
538
531
532
530
526
527
534
545
543
544
543
533
541
544
542
545
551
553
558
561
581
595
588
586
569
558
559
581
590
591
590
592
604
601
600
607
592
577
580
584
575
578
573
568
565
564
561
562
550
542
532
525
517
505
504
496
489
481
475
476
467
440
429
434
443
438
440
450
432
413
391
389
406
422
426
411
402
402
398
405
417
422
420
411
406
427
437
435
437
445
448
446
446
443
450
445
441
442
443
455
452
450
455
467
477
474
476
471
470
463
461
468
480
484
483
488
490
495
488
490
489
503
508
499
498
499
496
493
498
500
491
485
481
489
487
483
484
486
491
484
485
480
473
479
482
493
496
499
494
494
490
481
475
482
492
500
497
493
497
491
498
509
509
504
491
492
494
489
498
505
509
499
492
487
493
489
481
484
490
495
506
514
509
500
498
494
491
497
513
500
493
487
488
491
492
488
490
502
505
504
496
496
490
480
489
503
510
514
519
514
513
504
505
505
504
505
509
512
514
519
504
500
517
518
497
506
514
506
499
504
505
495
494
511
521
519
518
514
514
519
518
502
493
506
522
515
504
501
506
518
511
507
504
504
509
518
532
518
497
499
501
507
513
518
515
512
516
522
516
511
501
505
515
518
512
512
515
514
512
517
524
527
519
519
517
507
508
499
491
509
527
530
525
517
504
504
497
507
521
530
524
518
512
510
509
517
518
513
519
527
528
526
521
529
522
522
519
521
523
526
521
521
520
514
514
519
530
538
538
533
529
517
514
530
532
547
543
530
527
531
530
533
533
537
539
541
534
519
527
521
510
497
497
509
498
499
507
507
497
506
514
515
504
493
489
484
479
492
516
537
586
648
707
774
836
879
897
879
826
759
689
620
564
508
451
402
383
389
400
406
404
414
431
438
443
451
450
450
452
460
457
454
461
460
459
459
465
475
481
472
466
461
468
467
470
475
486
497
507
510
501
481
469
479
484
493
499
503
504
504
510
517
520
518
516
509
505
503
508
519
527
532
531
528
525
517
522
534
559
548
536
533
539
555
560
546
545
556
562
566
568
565
557
560
560
555
556
558
565
563
562
581
597
595
584
579
583
592
600
622
634
618
604
597
599
600
607
604
597
615
608
586
574
582
564
538
528
516
512
512
507
494
489
484
480
475
476
472
459
453
447
446
443
432
415
413
420
435
439
434
429
429
429
420
419
417
408
414
431
436
440
438
440
438
430
430
432
431
444
445
447
440
441
453
446
445
453
457
462
469
469
479
489
497
504
489
467
466
464
463
466
478
501
497
482
484
472
469
471
483
485
478
482
478
475
485
501
518
515
496
484
489
491
497
502
495
490
492
500
497
492
487
485
493
505
504
496
498
502
502
517
512
504
486
484
485
484
480
489
493
494
503
507
509
526
524
508
494
488
495
502
507
503
496
492
495
497
504
517
528
520
508
499
502
502
513
515
514
519
515
506
511
505
496
490
497
513
514
512
513
515
516
515
520
525
526
519
505
514
502
490
490
492
491
495
516
526
536
528
532
525
515
506
498
506
517
505
502
509
505
504
508
512
516
509
505
510
514
515
513
518
525
525
527
522
516
520
533
526
516
517
507
512
525
519
506
498
506
501
498
511
519
527
516
510
516
527
531
530
521
518
526
530
526
533
532
518
508
513
504
499
517
531
527
521
523
512
515
518
527
523
508
509
521
536
533
524
518
515
508
512
511
517
526
539
537
549
541
536
529
531
533
521
512
514
512
522
538
543
535
530
523
526
543
551
553
543
535
533
529
530
536
538
540
548
550
545
538
549
550
536
534
520
509
502
501
504
501
498
498
515
497
483
485
482
480
481
484
491
505
525
563
614
669
727
802
872
902
902
868
812
753
687
621
543
480
436
409
403
405
416
411
408
412
429
445
448
462
458
444
434
433
445
442
446
455
460
465
464
462
463
477
467
455
460
470
469
467
463
472
483
490
489
492
489
492
495
490
478
476
489
502
503
505
530
513
495
489
497
501
508
516
518
524
524
533
536
533
525
521
513
506
510
524
546
554
554
555
541
538
540
549
558
560
558
556
555
552
558
566
573
580
591
581
573
572
572
583
586
599
592
582
591
589
580
581
583
583
579
586
575
561
557
549
550
549
543
537
529
521
519
515
510
500
494
488
472
481
487
472
468
469
454
438
425
421
418
412
407
415
409
405
407
407
412
415
413
414
418
422
423
422
428
426
424
428
432
431
434
436
440
442
441
446
461
458
438
432
443
451
451
448
450
464
477
481
475
476
474
466
456
463
478
484
483
492
496
487
468
463
478
478
474
484
487
483
498
492
485
483
482
480
479
471
472
475
482
486
492
483
482
485
489
499
501
496
489
487
486
480
474
477
486
492
493
484
484
507
515
507
492
485
484
475
479
490
496
502
495
492
493
510
520
513
499
495
499
502
507
502
495
498
496
502
503
492
494
505
507
514
518
520
520
509
494
495
507
526
516
517
513
505
503
502
505
509
516
515
513
513
513
517
524
517
517
522
515
515
516
507
495
494
497
515
527
522
512
513
527
548
550
537
534
540
543
536
530
535
533
533
539
545
535
527
521
524
523
521
523
519
519
522
518
523
541
542
527
522
527
528
522
524
531
527
526
526
522
519
524
528
522
526
521
505
499
515
524
535
547
549
538
530
528
523
513
518
518
512
514
521
519
515
519
519
520
522
528
536
534
524
529
526
523
515
516
518
526
524
522
519
525
529
529
530
537
538
532
541
536
524
520
530
537
533
532
529
535
540
542
542
535
542
542
548
551
539
535
540
542
536
527
518
507
505
503
504
514
505
506
499
500
493
485
490
498
497
489
481
487
498
541
603
660
712
791
862
912
917
894
844
779
701
622
546
476
425
404
395
389
403
412
423
434
445
441
442
448
452
444
434
439
456
457
455
453
441
439
447
457
470
478
479
482
492
492
485
479
479
481
486
480
469
477
488
492
488
495
494
491
488
492
503
514
517
510
506
502
504
523
527
515
517
513
508
510
516
524
533
537
543
550
546
540
537
546
553
545
541
552
565
578
573
561
550
552
559
552
551
551
557
569
582
600
606
581
582
594
602
597
599
600
594
601
607
596
590
589
596
598
590
582
575
571
559
559
571
561
542
536
523
515
510
497
483
474
471
467
463
467
458
441
431
423
417
414
415
421
418
418
424
427
426
425
424
424
416
407
412
419
427
435
435
434
440
436
426
425
427
433
442
446
451
464
476
464
450
448
444
454
474
474
472
475
471
458
454
457
462
476
487
494
491
487
485
484
486
492
489
493
497
499
492
493
495
496
509
504
503
519
520
497
490
482
478
485
493
496
486
499
499
498
500
499
488
488
489
484
484
487
490
489
492
495
497
503
509
497
496
496
495
504
516
509
501
498
499
490
497
510
512
507
500
503
511
509
510
507
504
500
489
483
507
520
514
510
507
505
501
496
499
498
488
494
506
503
507
506
516
517
510
499
497
500
503
504
503
513
519
525
516
504
493
501
507
513
508
504
511
517
516
508
502
508
516
521
511
511
521
519
528
520
506
514
523
515
516
519
513
507
505
503
496
510
522
522
517
521
529
536
534
524
513
499
499
510
516
518
518
519
519
514
513
511
520
531
525
512
512
512
514
511
512
524
517
490
486
494
512
523
530
532
532
529
526
523
521
518
519
522
513
518
526
531
537
521
512
519
509
505
512
523
525
514
513
522
523
525
527
518
524
532
531
537
542
529
530
530
531
519
520
528
533
526
526
526
540
547
536
533
534
536
539
537
544
541
532
527
530
534
538
536
537
543
549
543
543
530
510
500
509
512
513
512
496
495
501
504
493
488
486
494
502
497
494
501
515
551
598
637
693
772
851
913
938
922
864
800
724
636
554
487
436
395
387
394
399
413
418
432
443
445
435
427
430
443
449
448
451
463
459
449
443
446
459
466
468
473
469
461
461
465
469
468
473
479
473
486
478
478
485
486
498
511
504
494
491
495
498
501
509
506
500
507
523
519
524
517
520
520
529
535
524
517
517
523
525
530
538
539
529
532
546
547
557
557
549
542
545
546
547
545
550
567
575
575
573
577
582
586
569
565
580
578
579
588
586
597
599
591
581
587
596
603
594
589
595
592
581
579
585
577
560
555
559
548
527
515
508
503
506
503
491
479
474
471
461
448
443
429
426
430
436
435
430
438
419
403
404
411
417
426
422
409
404
405
409
412
428
436
426
424
428
423
428
441
444
450
457
468
464
455
453
453
454
462
483
489
484
483
480
472
470
475
471
472
481
489
499
499
487
479
487
472
467
470
480
497
494
491
490
491
494
489
496
504
497
502
498
495
498
501
504
505
506
490
477
472
479
480
476
484
492
505
507
500
499
492
496
500
506
511
510
495
491
500
496
493
499
502
498
492
496
500
494
494
495
496
495
500
484
487
495
495
502
506
505
507
511
516
514
509
502
508
518
518
515
518
522
532
526
522
511
503
497
486
487
486
491
502
511
519
521
516
509
510
522
512
506
506
512
518
524
525
515
504
499
515
517
513
504
501
503
502
508
513
510
507
510
517
537
546
527
513
513
513
504
507
503
492
499
512
518
528
527
524
524
510
508
508
499
505
521
522
519
516
512
507
506
508
519
542
530
513
519
509
496
497
512
527
540
535
530
525
531
519
511
514
513
508
501
502
510
515
519
515
521
518
526
529
531
526
510
506
511
512
514
533
528
517
514
517
513
513
518
517
524
517
514
516
520
529
539
520
508
523
535
536
539
535
533
531
536
542
555
557
552
562
562
549
545
534
530
525
520
522
522
517
520
512
498
497
500
499
495
491
488
486
489
486
486
485
486
483
493
531
586
658
742
813
875
917
936
924
871
808
719
621
533
463
413
382
374
377
385
391
401
403
412
427
431
437
444
446
445
445
445
444
442
448
451
454
460
465
472
468
468
475
481
487
490
486
478
471
467
480
493
502
492
492
500
498
496
497
503
503
507
501
499
494
508
518
513
518
516
510
518
520
520
525
528
524
518
518
522
534
541
547
543
543
539
543
551
554
556
553
546
553
559
558
558
558
565
588
595
592
600
593
586
580
576
590
596
597
598
596
598
596
608
605
598
592
592
593
590
583
579
575
569
566
569
561
548
528
516
519
518
511
509
506
493
480
470
464
455
452
445
430
421
418
416
424
427
420
419
418
412
410
413
412
409
416
425
425
429
419
413
416
422
426
429
432
436
429
423
438
460
463
451
441
446
453
457
463
459
462
468
466
458
458
462
468
473
464
467
468
479
485
487
490
494
488
479
477
479
477
473
478
483
481
487
485
485
489
485
481
493
492
485
483
496
495
483
482
481
484
496
505
494
483
478
479
484
487
484
478
481
482
486
503
502
480
484
484
487
494
499
498
490
487
489
491
495
499
502
497
495
488
484
487
494
492
490
489
492
498
492
491
500
500
510
519
511
509
508
498
497
502
505
504
513
513
513
514
508
501
497
498
507
510
510
507
501
500
508
515
512
510
510
507
507
506
510
522
525
508
504
505
509
517
524
524
515
512
511
509
508
510
520
521
515
510
502
502
510
499
489
493
499
499
501
507
500
507
518
512
507
502
504
511
510
510
513
521
524
519
516
513
503
499
504
514
517
514
510
516
516
516
531
524
516
519
518
507
507
509
500
497
491
498
500
500
507
507
512
529
531
517
505
505
511
501
494
499
519
533
535
530
519
503
506
514
531
540
538
531
530
531
526
525
529
533
540
535
527
526
538
520
523
542
550
547
548
541
537
542
536
530
536
533
525
523
521
523
521
516
508
499
507
503
495
503
509
514
509
502
494
500
504
504
518
547
591
641
698
761
841
894
911
897
845
762
678
608
538
480
443
392
371
362
358
368
385
416
435
438
436
445
460
466
472
475
471
475
476
472
472
479
476
479
484
475
476
486
481
485
483
489
490
486
487
487
496
500
495
513
509
495
492
496
503
505
507
505
501
518
520
517
515
517
520
517
522
532
532
521
516
527
536
537
549
543
531
531
533
524
518
532
539
538
538
544
554
555
558
556
557
560
565
575
579
583
576
575
589
592
589
592
597
601
602
602
590
590
594
585
582
600
604
597
581
566
573
578
582
570
548
542
544
549
545
521
509
504
494
481
485
483
481
472
464
450
437
436
434
429
418
406
405
403
413
425
431
426
413
403
412
416
412
405
403
406
418
440
458
470
461
451
438
433
429
433
447
453
454
454
449
459
463
455
457
480
479
471
471
478
478
472
472
468
461
469
459
468
472
470
474
481
488
487
483
482
481
484
479
492
506
500
492
489
492
492
492
486
485
493
493
486
482
478
474
479
485
490
490
496
502
499
486
480
484
485
483
484
498
497
499
491
482
484
493
503
515
507
500
491
478
474
475
477
476
478
492
497
496
490
498
502
503
507
504
516
520
518
513
507
496
499
510
499
490
511
509
505
505
503
503
503
502
498
498
503
502
504
508
510
520
516
509
510
514
514
514
507
496
487
489
495
503
503
498
501
501
516
543
527
520
510
489
485
490
495
509
514
522
520
518
521
518
528
528
525
528
516
506
503
502
506
512
508
509
513
516
515
516
517
509
517
524
528
526
521
525
528
509
507
505
495
509
513
508
513
515
520
511
505
503
500
510
527
533
532
532
529
524
517
514
520
514
513
521
515
512
517
522
537
544
531
534
535
527
524
526
522
518
524
526
528
535
553
543
532
531
536
545
535
524
523
529
545
556
556
555
547
542
546
541
521
510
505
503
503
500
498
508
521
525
519
509
495
493
499
505
502
506
515
529
563
607
654
728
810
866
914
912
864
801
730
649
580
518
460
430
407
382
369
370
380
399
419
425
433
438
451
463
457
454
454
458
465
472
493
496
481
485
472
467
472
483
493
501
494
484
484
485
492
504
509
491
484
486
488
484
491
507
518
513
509
509
506
509
507
496
492
501
508
517
512
511
512
509
525
535
541
537
528
533
539
543
554
554
562
573
563
555
572
570
563
557
554
551
557
568
574
571
574
573
573
577
592
594
594
594
594
600
603
606
610
617
620
602
598
593
580
586
586
570
561
563
575
574
573
571
560
545
532
524
520
515
519
503
492
487
477
465
451
444
445
440
432
421
414
415
414
402
409
417
425
423
419
414
422
433
431
435
440
431
427
423
428
425
429
432
426
429
435
432
429
453
464
466
460
469
474
459
469
484
471
462
464
471
473
478
480
481
479
481
486
493
482
478
479
484
481
483
488
492
489
482
480
483
497
491
485
493
495
489
495
500
498
504
507
501
489
467
464
479
486
482
482
485
489
505
516
501
489
485
480
483
500
517
514
504
501
499
491
485
489
496
502
509
500
495
502
508
514
519
509
491
492
492
496
500
493
487
493
505
512
514
518
515
505
500
506
513
519
514
504
504
502
510
519
521
513
508
524
537
517
497
489
502
509
511
515
518
526
538
529
514
511
508
509
517
514
505
507
515
519
522
520
514
509
508
505
504
507
509
517
510
516
512
507
507
503
504
524
526
513
517
520
520
509
506
504
512
517
519
524
532
544
525
517
510
506
504
508
517
521
518
525
526
522
525
538
530
518
516
521
527
525
518
512
515
510
505
502
506
515
526
534
539
529
521
537
534
528
530
535
531
521
513
522
527
525
535
534
526
521
541
545
537
539
546
544
549
552
550
538
538
540
534
531
523
520
516
516
511
500
495
497
489
489
491
505
519
517
513
510
500
483
486
502
540
590
637
700
770
832
888
924
912
853
784
709
636
566
497
439
398
380
373
384
401
412
428
445
451
446
445
448
462
460
449
445
454
462
471
473
463
473
481
482
482
474
467
476
483
473
474
476
476
485
489
490
494
491
489
502
506
503
502
508
507
507
513
510
509
518
526
526
519
520
532
521
518
516
504
516
543
529
538
537
526
526
529
531
538
536
535
548
559
564
569
566
564
563
552
551
565
569
566
568
569
571
581
585
590
595
591
594
605
598
580
579
591
592
584
579
585
587
592
590
584
578
563
564
569
567
560
546
531
520
512
510
503
490
476
471
475
482
470
467
459
444
438
437
429
419
415
416
412
412
427
424
420
417
414
407
404
419
429
438
432
423
423
423
435
441
446
440
429
431
440
442
441
445
456
462
467
474
467
462
470
471
470
476
470
460
461
472
476
476
483
489
497
502
502
499
501
504
504
497
496
491
496
503
506
498
493
492
498
490
480
475
479
492
506
500
498
494
491
491
491
494
501
507
496
489
483
482
474
480
490
495
498
498
500
509
508
498
503
507
509
502
497
500
507
507
505
503
502
495
496
496
486
483
493
496
487
492
503
499
490
491
506
504
503
510
508
499
497
504
506
528
530
524
513
492
476
478
493
496
499
501
518
521
513
510
524
521
516
516
515
510
509
512
505
501
497
498
500
500
501
501
500
525
521
515
522
526
523
533
519
507
494
479
496
523
528
521
506
501
509
511
507
498
494
497
504
516
516
525
517
510
510
516
522
524
530
526
503
497
500
507
505
501
514
519
531
545
543
528
513
506
518
526
530
523
517
517
508
506
505
498
505
512
523
527
524
512
514
525
522
528
534
524
516
512
520
532
539
542
537
529
538
550
541
534
531
537
541
540
536
544
558
548
539
540
543
536
529
528
528
513
503
486
482
482
487
502
513
502
489
491
496
496
490
482
490
516
534
572
615
683
756
829
884
900
898
862
815
757
673
582
512
450
412
389
385
391
404
422
435
447
457
437
439
461
458
463
452
435
432
435
438
443
441
445
456
455
454
466
473
472
485
485
481
475
473
474
476
483
485
484
487
490
489
507
508
518
516
516
509
506
502
495
493
495
491
490
491
517
523
512
508
505
517
525
526
523
526
536
544
548
561
558
558
551
549
552
560
554
556
553
547
543
545
558
576
576
564
569
575
582
589
595
591
584
580
577
577
580
580
573
565
570
590
591
584
583
588
587
585
589
569
555
550
547
541
542
524
503
497
490
487
486
481
482
464
443
436
427
414
421
428
426
420
413
408
400
408
412
412
412
419
416
418
419
425
426
425
424
416
417
425
433
431
430
441
435
438
441
432
438
461
467
458
449
455
456
456
457
463
457
457
462
467
469
481
489
491
487
483
492
494
482
477
478
480
487
492
497
494
486
490
498
500
501
506
507
504
497
484
480
483
483
496
492
489
490
493
489
495
489
486
491
497
505
502
493
490
491
500
503
496
490
493
499
497
506
512
508
506
509
512
513
511
507
497
493
497
496
501
502
495
494
500
497
501
502
506
516
507
499
496
501
502
513
527
516
507
520
526
520
516
519
516
498
506
520
517
503
503
510
512
509
505
499
504
510
524
529
518
506
507
504
504
508
521
530
525
527
519
510
505
512
521
529
525
522
520
515
505
517
527
514
514
513
502
500
499
509
514
518
517
510
513
518
513
509
517
515
511
509
513
522
522
521
521
524
521
518
513
512
509
507
509
510
512
524
528
524
516
513
528
534
523
510
517
515
508
512
518
525
529
526
513
504
513
525
523
518
523
522
524
529
525
530
537
539
535
531
537
537
540
532
527
526
527
537
546
552
552
558
549
540
528
532
525
523
536
532
519
507
519
527
518
520
505
494
483
491
491
485
482
483
487
489
492
496
525
575
630
701
778
855
911
938
919
870
810
742
652
565
485
434
424
406
398
400
414
422
428
430
438
441
448
457
457
444
440
441
438
440
451
458
458
457
462
463
460
467
476
486
486
485
481
480
480
470
467
471
479
492
492
488
491
494
490
499
505
504
500
502
503
508
508
507
504
507
515
529
546
536
534
528
527
525
517
515
528
532
541
540
537
539
544
550
547
539
541
548
548
547
560
561
565
571
577
579
581
591
592
594
592
588
611
604
599
591
590
596
603
604
601
597
596
595
590
584
576
578
575
566
558
555
558
551
545
525
498
489
489
487
479
482
489
475
455
455
446
430
430
433
441
453
441
431
418
414
407
392
385
396
412
420
420
420
414
416
423
429
436
427
419
432
431
428
428
428
431
440
448
450
453
456
458
458
455
456
457
459
465
459
459
474
479
472
467
471
479
477
482
491
500
513
507
495
493
486
481
485
484
486
486
477
481
488
492
493
489
482
481
487
491
502
517
518
495
483
481
484
484
482
504
517
505
491
485
482
489
493
495
498
503
503
502
494
486
493
501
510
501
505
507
498
490
486
494
506
505
495
505
508
507
506
506
508
510
510
506
510
512
501
492
488
485
490
494
499
509
519
519
515
514
516
512
511
512
512
513
513
507
505
505
518
524
522
517
514
515
510
516
526
516
506
497
493
507
515
509
509
507
506
502
509
512
512
518
530
522
510
513
519
521
522
516
514
516
510
508
520
528
519
496
498
518
534
544
525
508
506
509
505
504
504
508
517
523
522
514
519
525
518
512
512
520
525
522
515
523
530
526
527
523
516
514
504
499
510
516
519
515
519
527
532
547
544
535
527
521
526
535
535
532
542
551
537
521
539
551
557
552
547
543
543
555
553
553
558
548
532
525
515
509
504
502
508
497
498
501
502
499
493
483
476
471
471
483
504
539
581
629
677
740
818
890
936
949
898
840
766
677
595
515
451
419
406
400
397
396
410
425
433
435
440
452
458
447
440
440
445
448
446
442
451
454
458
466
467
464
463
465
469
469
476
491
499
489
493
506
492
481
478
483
483
486
498
502
497
495
503
515
519
510
500
498
507
506
497
499
513
523
521
517
528
538
528
527
528
530
537
546
555
557
553
552
551
555
564
568
560
559
562
572
578
579
575
572
572
578
583
578
579
589
598
593
600
606
617
617
608
599
602
602
601
592
581
571
571
580
584
572
565
569
572
563
557
546
538
525
510
500
493
488
482
473
462
460
454
453
457
443
432
423
410
410
407
399
394
402
416
422
420
417
418
430
419
402
395
401
412
415
422
420
424
436
437
438
439
448
456
459
459
461
460
458
458
462
475
474
456
457
453
459
475
477
480
476
468
472
480
492
504
502
482
465
469
482
498
497
498
497
496
493
492
492
487
482
485
498
511
508
496
483
478
482
485
485
487
488
485
480
480
478
480
488
491
505
513
516
503
489
477
473
478
484
486
499
507
500
497
496
507
512
513
504
498
488
493
497
499
499
501
500
499
491
484
489
496
507
506
496
493
496
501
503
507
506
497
506
522
529
521
506
500
504
509
509
512
510
512
518
514
513
510
516
511
505
493
497
503
505
511
518
523
515
512
505
506
523
526
509
502
500
509
512
508
510
516
515
514
518
513
509
515
519
516
509
502
502
512
521
517
510
505
514
515
512
524
527
522
515
506
506
506
513
531
515
498
498
502
506
507
501
508
518
522
528
527
513
507
506
516
518
517
522
519
519
537
540
525
521
523
525
529
530
530
531
529
519
513
512
516
526
526
528
526
533
538
543
542
547
539
539
534
525
519
518
521
520
514
526
528
519
504
503
509
513
516
519
515
502
498
491
492
495
489
492
501
526
564
607
668
745
819
882
921
937
903
829
756
680
599
525
450
402
377
355
354
368
392
398
406
420
421
429
439
453
458
464
465
454
455
465
471
461
461
469
474
475
477
470
479
486
497
494
495
494
497
501
492
489
509
508
495
484
466
467
480
489
498
495
501
510
518
521
514
512
512
507
515
528
535
533
526
520
520
526
534
536
543
552
546
548
544
546
550
547
551
566
564
582
589
567
560
569
573
570
574
581
587
593
593
593
589
593
598
590
594
604
624
627
612
609
603
600
607
607
605
600
588
575
563
557
559
559
555
543
531
526
521
516
498
485
479
468
467
463
451
444
454
446
430
420
408
404
414
420
436
434
425
422
425
420
415
414
415
408
401
416
425
421
424
427
432
436
430
422
427
442
445
445
447
457
462
466
470
475
479
474
474
474
476
468
460
471
485
481
483
478
477
496
495
500
499
494
487
475
472
480
492
506
511
498
492
499
506
500
484
481
482
493
490
487
498
498
490
486
487
490
490
490
496
501
496
493
485
482
489
493
496
496
502
510
513
518
504
500
494
496
499
513
508
501
493
481
490
496
499
509
518
505
499
496
496
497
491
491
489
500
515
524
514
501
495
496
500
508
515
517
510
510
519
516
507
504
508
510
509
508
514
510
506
509
523
524
509
514
523
515
507
504
507
512
510
510
510
507
501
509
518
519
515
519
520
517
507
506
509
524
518
510
505
512
515
507
511
515
519
524
530
532
525
524
522
531
540
521
517
515
506
502
505
512
527
521
520
512
510
515
521
515
514
511
513
507
505
505
517
526
527
528
524
518
514
508
508
515
515
514
511
514
534
534
527
526
522
515
508
508
511
516
527
538
539
535
531
529
529
524
526
530
533
531
534
530
532
539
544
542
552
552
544
537
529
525
520
526
540
523
510
514
521
523
524
513
516
516
512
511
514
492
489
496
501
510
514
505
500
503
525
558
606
667
735
801
858
895
904
857
799
732
662
580
497
440
402
380
369
373
384
400
412
419
428
443
454
468
473
462
459
458
459
458
469
469
473
472
466
469
468
476
480
486
488
493
495
495
502
506
499
502
512
505
488
494
492
487
492
502
517
532
515
499
497
494
500
512
513
518
524
512
512
521
533
529
523
524
528
531
526
518
533
554
558
546
542
546
555
567
569
565
576
560
543
542
545
549
563
568
576
580
586
587
595
597
607
610
599
593
594
596
598
604
602
607
610
614
601
583
576
566
566
577
569
554
544
534
533
534
519
503
494
483
483
475
472
478
469
461
452
450
438
425
422
419
413
407
404
406
415
414
409
403
409
424
423
425
421
411
409
412
421
426
421
419
422
428
431
441
452
449
454
454
456
457
457
466
468
464
463
470
474
467
475
483
479
475
475
488
492
474
469
480
488
487
481
478
479
495
503
509
498
489
484
482
479
481
483
490
491
499
503
496
489
479
484
486
472
476
473
468
480
495
507
502
497
491
486
480
484
487
493
492
489
497
506
504
507
506
500
496
492
499
515
506
499
492
493
495
497
497
500
509
496
495
493
484
484
480
482
492
506
513
511
504
507
512
506
495
484
487
498
506
507
515
510
506
517
525
526
520
510
503
503
507
503
505
504
507
499
496
492
497
495
509
515
502
497
505
515
517
517
510
517
517
515
518
510
503
513
517
515
519
520
500
493
501
511
513
509
512
532
529
520
513
513
507
503
506
507
503
498
503
503
507
507
509
513
517
515
512
508
501
508
511
509
511
519
529
529
526
514
504
507
510
513
502
498
506
516
531
530
537
535
519
508
515
522
525
522
516
522
530
533
529
518
527
549
541
527
515
513
509
505
513
532
539
540
539
542
547
543
541
541
534
531
525
526
515
508
508
508
505
500
497
504
508
503
502
501
496
500
504
499
494
500
522
548
592
657
732
791
843
878
890
865
814
750
676
602
529
465
425
398
383
382
388
395
408
424
434
433
434
436
445
452
453
465
470
459
458
474
484
480
460
453
452
460
473
476
466
477
479
474
479
496
496
487
482
484
489
488
486
484
489
496
495
503
519
526
517
509
512
511
506
502
500
508
525
523
519
517
530
535
527
522
518
527
526
530
531
539
547
540
549
559
545
539
549
554
552
557
570
563
555
555
550
562
580
591
589
589
590
590
589
600
605
607
613
604
606
601
589
580
569
572
580
572
565
556
548
554
547
544
534
523
516
502
485
475
471
473
476
467
463
465
456
460
444
437
432
422
420
430
426
417
404
401
405
406
403
403
406
408
412
417
420
407
404
400
408
420
424
434
440
442
437
440
437
431
434
435
441
445
441
448
454
449
448
453
458
453
453
464
469
470
471
483
488
488
491
491
489
482
471
485
487
477
479
480
471
472
481
484
483
496
495
483
476
476
480
486
495
491
489
488
496
500
506
512
503
487
489
489
495
484
475
479
473
474
490
500
499
498
504
506
500
499
494
498
511
515
506
505
510
497
491
494
493
503
515
507
503
496
495
500
514
507
506
507
508
503
501
509
512
512
516
508
500
496
494
498
518
532
533
528
518
513
518
513
508
512
521
526
519
509
509
522
518
509
504
508
510
515
512
512
525
520
513
513
513
515
523
520
511
510
516
520
519
518
523
526
525
526
524
518
522
529
533
517
509
508
506
509
506
503
524
531
526
519
519
528
518
514
521
519
526
529
514
504
512
520
524
529
524
518
514
514
526
530
525
533
538
529
529
524
521
521
509
503
504
508
521
517
515
516
527
530
523
532
540
523
514
513
513
517
515
523
517
512
517
516
521
527
523
518
518
518
521
520
517
525
530
534
531
530
537
537
540
533
527
528
519
528
545
555
558
570
548
528
525
529
538
542
537
537
531
523
518
521
529
527
516
509
503
504
498
498
501
507
511
495
478
478
494
526
565
614
681
746
814
877
909
909
881
821
741
665
596
530
472
438
432
414
415
421
422
435
440
439
452
457
461
461
451
446
438
451
466
455
449
440
441
444
451
455
461
470
484
489
488
482
475
482
501
512
496
488
493
483
487
495
490
487
486
490
499
497
498
492
491
503
510
513
520
530
526
520
526
521
521
528
525
532
531
542
548
538
545
540
531
538
548
553
546
551
559
549
546
543
551
570
580
587
586
584
582
579
582
588
590
594
601
598
602
610
602
601
597
596
594
593
587
582
572
567
571
589
587
574
564
561
553
551
541
536
525
512
495
484
472
466
471
463
450
449
446
446
438
434
433
431
431
425
430
427
413
407
408
413
423
418
415
427
430
431
432
430
437
448
449
440
456
454
441
436
434
432
438
455
455
460
467
474
474
468
464
468
468
467
468
482
492
489
483
485
490
493
498
510
512
502
483
480
475
474
474
474
480
481
487
488
486
483
480
482
485
488
486
484
482
480
484
486
490
494
495
491
493
487
489
491
490
493
490
483
482
479
488
494
505
502
496
496
497
500
497
494
496
495
488
487
492
491
491
514
515
512
509
503
501
501
503
508
510
508
496
499
509
515
510
506
510
506
504
508
507
505
508
520
521
517
522
521
518
511
508
505
510
509
524
510
499
495
504
515
522
515
524
525
512
499
500
502
502
504
514
519
520
518
518
518
520
530
526
522
516
515
518
523
522
523
518
520
521
516
519
535
528
521
506
501
499
502
513
516
519
515
514
520
521
509
514
524
531
519
509
510
512
508
504
506
507
513
513
513
518
525
527
524
539
533
524
517
511
509
508
510
523
527
526
517
518
523
530
524
526
533
533
522
511
505
504
513
516
517
515
517
523
524
531
534
529
526
529
526
519
515
517
513
508
515
521
526
528
535
543
544
544
547
547
553
543
532
533
532
533
538
541
544
541
537
534
530
535
546
545
540
530
518
508
508
514
513
501
501
505
511
512
504
504
497
487
482
482
489
500
512
536
580
649
734
813
885
914
912
880
826
753
676
597
525
467
433
408
400
399
410
420
426
440
447
445
447
454
447
443
439
441
443
440
443
453
455
450
450
468
480
473
475
474
475
470
466
469
473
470
469
474
481
490
491
483
492
501
503
500
501
506
498
504
513
515
511
509
510
513
516
520
517
504
491
493
518
532
530
528
525
523
530
536
534
542
542
551
548
552
553
545
542
553
556
562
567
574
573
563
558
563
572
585
587
584
597
606
595
584
582
591
594
585
586
591
603
583
565
560
568
573
569
565
563
561
558
555
547
531
529
527
514
503
490
484
485
487
479
472
460
434
425
419
411
415
402
398
424
434
427
423
417
402
401
413
417
415
418
422
424
428
431
434
432
441
440
438
435
436
441
441
444
447
456
452
452
455
458
471
473
481
474
455
451
455
459
468
474
479
482
478
480
487
494
490
485
479
479
491
496
508
507
496
499
503
494
489
485
485
495
501
504
502
492
490
499
495
495
490
487
493
487
490
493
499
499
494
493
486
488
488
492
498
497
498
498
499
509
506
501
511
509
500
496
493
488
493
520
518
504
502
510
510
500
506
507
506
501
491
480
489
504
513
514
506
507
513
514
516
509
508
508
504
500
497
496
504
502
497
505
517
515
514
509
513
514
513
517
519
518
520
508
510
502
499
506
508
509
514
510
509
503
496
497
503
507
515
514
515
514
515
512
513
513
508
527
535
516
507
519
520
526
522
510
499
497
497
500
504
512
513
509
510
516
523
504
501
510
507
504
510
515
513
513
519
526
526
517
514
512
515
512
508
516
518
520
521
522
520
520
526
526
521
516
522
520
516
516
521
529
536
530
523
513
505
504
499
500
508
527
516
509
510
519
510
506
506
509
515
526
536
531
539
535
521
518
512
510
509
512
517
526
532
531
531
530
534
547
541
538
542
542
527
523
523
525
532
529
520
527
538
547
553
551
544
536
519
502
502
498
496
497
499
496
491
491
493
494
497
494
492
491
491
488
509
522
556
610
668
725
793
854
893
902
865
818
761
696
614
526
457
419
397
388
393
399
412
425
435
446
436
436
436
431
434
451
451
444
448
454
452
451
461
450
449
458
462
461
465
479
481
481
480
473
471
477
484
493
483
474
475
482
486
496
514
514
508
501
495
490
495
498
500
503
509
517
519
508
514
532
536
524
521
518
525
533
539
551
552
565
551
535
536
541
541
544
546
544
546
554
555
556
560
567
570
573
580
586
586
591
585
580
588
600
595
585
587
590
597
606
602
602
600
597
597
592
590
600
581
564
551
547
551
554
554
536
518
510
501
489
480
475
465
459
453
458
452
439
435
441
440
434
419
420
421
425
416
401
399
397
406
416
414
418
421
413
414
425
442
439
441
439
428
432
435
442
446
442
435
440
449
458
457
452
447
463
469
474
478
474
474
476
476
479
476
475
480
480
469
475
481
488
497
496
495
491
484
481
479
485
486
483
478
484
495
491
486
488
490
492
490
488
495
498
501
504
498
494
492
495
495
493
491
490
489
492
497
486
493
499
496
487
482
487
490
489
490
492
493
496
491
490
493
502
494
484
493
506
512
514
519
514
521
512
495
493
500
505
510
515
519
500
501
504
503
501
499
489
490
497
513
523
525
527
531
525
512
505
503
506
514
508
511
513
509
512
506
502
508
525
531
520
520
522
521
521
518
514
513
510
515
516
512
524
521
526
525
519
506
507
504
515
521
514
513
518
521
528
520
513
518
520
517
515
518
521
524
532
533
530
527
520
523
527
516
508
523
536
530
532
530
518
508
514
525
554
544
529
516
512
514
514
507
505
508
519
531
541
544
538
525
523
517
522
527
529
531
533
527
523
526
529
518
521
520
509
510
516
513
508
515
524
523
522
522
523
529
536
536
529
532
532
534
530
529
524
536
531
525
519
512
512
519
524
531
549
554
551
541
538
535
528
528
532
530
527
513
496
486
495
495
491
498
497
486
490
492
501
496
490
485
483
485
483
499
521
557
604
669
745
822
877
911
920
892
834
759
674
598
516
444
401
377
369
384
385
400
408
418
428
428
439
454
450
442
438
446
449
444
447
457
464
458
458
457
456
465
478
479
476
474
474
474
474
473
483
495
497
502
502
504
509
506
497
492
493
506
520
518
500
483
484
487
499
511
519
522
520
513
517
529
539
548
550
557
561
538
521
523
531
543
543
543
552
551
557
564
566
556
550
549
560
576
577
581
590
598
591
588
586
585
589
596
602
588
586
598
593
590
607
600
593
597
596
586
571
564
574
581
577
568
560
546
539
539
538
526
511
504
492
493
486
470
464
451
443
446
440
435
435
437
435
428
428
425
406
395
390
393
407
431
438
424
411
403
405
422
430
436
439
438
431
429
434
435
442
453
458
466
474
466
463
460
453
452
461
476
478
471
469
467
463
465
464
470
469
473
486
495
489
487
487
482
486
489
494
494
497
507
493
479
483
479
471
475
479
486
488
480
485
484
478
478
479
483
493
498
501
501
500
494
497
497
493
500
501
496
501
497
502
494
496
500
499
509
494
501
503
497
490
489
488
495
492
486
508
512
503
504
506
504
499
498
507
505
501
506
507
505
512
526
514
505
506
501
500
501
501
500
500
501
505
509
516
518
524
516
506
505
503
505
512
509
504
502
502
510
518
514
514
520
521
513
504
507
514
517
521
527
527
521
521
521
512
507
508
515
513
519
516
511
509
507
502
502
508
510
514
516
522
517
515
513
504
514
515
515
516
520
522
523
526
525
520
513
506
502
495
492
499
508
522
525
522
516
509
521
511
508
509
509
515
528
523
518
517
512
507
499
498
502
518
527
520
511
513
516
509
506
516
527
526
518
512
507
512
519
519
516
522
522
523
521
524
523
522
524
524
537
533
530
533
536
528
517
515
523
534
542
538
540
551
541
540
538
538
530
527
518
511
514
507
498
494
498
495
494
493
495
497
495
500
500
497
507
510
505
496
496
516
548
588
633
695
769
835
875
900
891
833
756
670
585
511
453
414
390
377
371
371
378
391
402
418
432
449
448
444
452
460
463
464
465
465
470
472
468
467
467
468
479
493
492
490
480
479
484
487
483
493
498
500
501
506
511
513
515
520
516
506
519
522
515
508
513
514
517
527
517
531
543
538
525
518
528
524
524
532
528
527
537
542
537
543
554
557
557
556
560
564
576
572
572
571
568
576
585
577
574
586
588
594
595
591
583
585
590
591
596
593
598
598
595
596
595
588
588
587
590
590
583
580
578
581
580
565
549
536
533
535
525
517
513
504
498
489
479
470
465
456
444
434
428
429
426
427
432
425
416
415
412
417
416
418
426
416
416
419
424
431
429
424
425
427
428
433
433
440
448
453
452
440
437
445
461
461
461
466
473
476
473
470
473
471
471
482
487
471
469
478
480
483
489
490
492
492
495
495
499
501
492
484
485
488
500
494
495
499
504
503
501
494
483
479
478
487
497
501
499
505
509
507
508
495
497
493
487
491
497
495
494
500
506
514
502
494
495
491
497
504
501
500
497
500
503
505
505
509
501
488
486
495
507
497
488
494
502
503
505
507
509
525
523
507
498
497
499
495
496
498
505
513
512
510
514
514
516
528
525
512
507
499
509
496
494
500
518
528
521
513
509
495
490
501
508
525
518
516
524
514
505
508
514
517
520
528
536
532
525
513
500
504
503
506
508
508
501
501
502
508
512
515
517
521
514
521
519
513
517
519
535
529
529
533
513
501
501
505
517
526
529
533
539
536
537
530
531
538
533
530
528
531
522
529
530
524
524
538
543
534
516
519
531
525
520
529
530
531
530
536
545
552
560
559
556
556
548
545
561
559
557
558
559
555
553
547
543
556
565
567
567
561
544
537
539
542
530
521
510
512
516
520
529
538
520
510
512
522
519
506
491
480
496
534
584
636
693
738
789
831
858
862
830
785
734
655
569
493
435
398
382
381
380
381
389
403
414
433
447
452
453
457
469
465
461
458
458
466
466
468
484
478
467
464
478
483
481
478
478
470
475
493
497
491
494
503
504
500
490
494
490
490
493
493
493
496
505
514
512
512
523
535
536
518
502
504
513
519
520
522
519
522
516
518
532
533
531
528
525
528
539
549
550
553
548
548
552
566
570
564
574
575
575
574
572
581
587
584
584
580
588
589
592
597
597
588
593
602
599
598
594
582
584
574
562
548
546
555
548
546
546
538
521
518
514
513
503
487
473
467
463
459
447
443
438
436
430
427
436
437
420
412
415
410
411
405
398
399
404
409
415
421
417
414
413
418
420
426
430
426
431
445
448
443
436
446
447
446
453
461
467
463
460
472
487
472
472
467
463
456
460
473
486
475
465
464
466
472
479
485
475
468
467
477
487
495
496
490
484
484
482
479
482
484
489
485
489
487
480
478
482
485
494
502
496
485
480
483
489
501
504
505
502
502
504
509
504
497
497
493
494
501
499
488
482
496
505
507
500
493
492
488
496
504
515
520
515
507
506
496
490
500
505
499
509
509
502
503
497
510
522
512
496
497
498
504
498
501
516
509
503
513
512
509
500
497
507
499
500
508
495
488
493
499
503
509
528
535
518
498
495
502
500
499
500
503
509
507
499
513
513
503
500
498
494
495
499
512
516
510
510
505
503
499
499
502
502
505
508
504
518
548
531
512
511
503
499
504
518
519
505
499
517
519
505
495
497
501
500
507
517
508
506
502
504
508
510
516
530
519
505
508
509
512
513
516
528
521
512
515
524
542
542
527
521
515
519
519
519
523
521
541
558
548
534
529
518
521
543
537
531
525
516
506
500
500
505
501
496
499
505
504
504
492
480
478
484
487
498
508
521
546
567
598
647
706
774
837
865
866
837
786
728
654
578
521
466
424
395
392
407
408
415
427
442
438
433
436
439
454
468
466
448
449
458
465
459
462
479
486
480
472
477
484
487
489
491
488
489
491
488
489
490
489
488
487
495
502
500
500
498
503
502
504
500
501
507
506
518
533
523
511
513
513
507
513
529
539
543
543
538
527
524
527
537
533
529
536
546
552
559
552
548
555
567
561
558
565
572
573
575
588
579
573
572
576
577
579
580
580
585
585
588
587
582
588
604
603
588
583
579
582
584
572
565
559
550
544
532
520
517
517
515
508
496
488
469
465
474
468
455
446
447
445
428
423
423
422
428
426
416
417
423
412
413
403
401
417
435
438
427
421
436
450
451
445
442
437
426
418
422
430
443
448
456
461
451
449
457
457
460
461
463
469
476
472
474
492
500
485
479
486
481
480
483
490
491
490
487
480
482
485
483
490
482
477
483
488
492
491
488
493
492
488
490
492
491
487
491
490
487
489
490
494
493
503
506
504
501
499
494
488
486
485
490
497
504
503
499
497
498
486
473
486
499
505
512
511
510
515
515
512
508
509
509
506
498
510
509
517
511
508
508
510
499
492
489
489
495
504
504
515
518
513
511
516
517
512
511
514
516
510
506
504
499
497
498
498
489
492
517
525
521
534
528
519
516
510
520
522
516
514
510
504
500
502
509
516
527
527
511
519
524
512
495
492
497
501
503
508
519
522
522
518
532
532
524
522
524
521
515
513
521
511
504
509
516
515
513
515
514
515
514
520
525
525
516
512
513
513
512
518
518
516
510
499
497
509
516
521
532
527
525
524
526
528
523
512
515
527
527
521
512
512
522
531
534
533
536
536
537
534
530
527
527
530
534
536
541
538
535
544
538
526
530
525
514
509
507
506
506
504
508
505
515
520
509
503
485
482
492
500
487
479
494
504
524
565
612
671
736
808
864
896
889
857
802
742
668
588
513
452
419
396
393
398
412
418
420
436
430
430
442
440
440
442
448
462
463
463
463
466
466
462
463
475
468
461
466
469
472
473
471
477
479
482
493
498
497
493
487
486
488
488
491
500
502
502
502
513
502
503
514
510
515
516
512
513
513
516
526
535
542
526
526
534
531
530
531
536
543
544
546
553
555
553
558
551
550
549
552
559
567
564
569
574
572
572
583
591
594
587
590
602
592
583
578
584
593
595
591
589
587
584
584
585
581
587
587
570
559
553
548
547
543
537
526
507
496
490
479
471
476
496
484
479
458
434
424
427
424
418
412
411
413
416
418
417
414
416
413
408
412
421
428
432
433
431
434
437
443
446
448
450
450
455
455
446
450
462
464
462
464
464
458
460
460
460
461
465
471
475
483
482
477
474
469
477
485
476
474
489
499
498
515
514
506
499
495
498
496
496
502
504
508
511
495
488
495
494
483
491
488
488
494
503
506
504
506
505
491
475
469
484
487
485
483
486
492
502
512
513
512
505
505
506
506
500
502
498
503
508
514
516
527
523
508
503
515
507
493
489
497
503
510
504
498
495
510
526
513
502
507
511
510
512
521
516
506
507
512
508
504
509
521
523
529
523
516
509
511
508
503
508
511
512
513
513
511
516
516
513
521
521
503
490
499
514
519
519
519
506
503
507
515
519
528
536
534
527
515
512
509
509
518
508
507
521
519
518
521
518
517
515
518
519
519
517
519
523
522
520
516
515
512
515
519
520
518
518
523
525
521
523
518
518
522
523
507
496
499
507
522
543
528
515
510
512
516
519
524
517
518
516
522
521
518
525
526
525
529
530
528
523
523
526
526
532
522
526
537
533
517
516
524
529
526
526
526
526
529
527
530
538
543
540
539
547
543
530
525
533
530
520
517
517
515
508
516
528
518
506
495
492
492
484
476
473
481
484
478
479
489
511
559
601
656
723
790
852
892
887
841
782
717
650
575
513
450
403
380
375
376
397
397
394
396
403
412
418
428
434
428
424
424
436
438
433
430
435
433
428
436
442
459
467
459
464
451
450
461
471
480
485
491
491
485
482
487
495
491
495
482
478
481
481
483
493
503
509
517
515
497
491
501
516
524
521
520
528
532
530
529
530
530
536
537
542
548
550
546
549
549
549
548
552
557
567
573
570
570
567
566
569
572
575
600
609
589
589
584
578
577
574
592
591
585
590
590
594
594
585
584
581
570
564
562
564
556
546
537
529
537
537
531
526
512
497
481
476
480
486
462
453
455
437
434
424
417
423
432
431
430
431
425
418
415
417
425
429
427
433
431
423
424
422
426
433
432
436
441
440
438
442
444
445
449
451
450
445
450
452
448
453
465
490
495
479
475
474
471
473
477
477
479
481
485
486
486
495
495
485
477
486
494
489
489
492
489
491
495
502
499
492
491
497
501
494
496
501
506
505
488
489
494
491
492
495
501
507
511
509
511
512
507
507
492
487
496
499
498
498
498
492
491
490
487
494
502
513
526
523
516
510
495
499
513
513
514
509
514
525
521
519
515
518
512
503
502
509
516
510
503
504
502
506
508
506
518
518
521
519
512
508
506
506
504
508
515
512
512
509
506
519
524
518
517
522
518
518
518
515
518
521
519
521
516
505
503
509
517
518
516
521
525
518
509
501
504
506
509
513
516
532
532
524
520
519
522
523
516
522
518
510
511
511
508
508
514
515
514
530
527
520
520
516
508
514
519
520
521
522
524
533
534
542
526
515
515
520
520
518
525
521
516
528
539
531
518
512
508
512
523
523
516
513
516
521
519
522
526
530
520
520
531
527
525
524
527
535
539
537
533
534
537
540
528
518
523
521
521
529
540
542
540
541
546
541
537
540
543
539
540
545
549
551
546
540
543
558
540
524
513
507
494
489
500
502
500
501
499
508
504
495
493
496
491
487
490
507
544
589
652
725
804
869
910
926
900
846
803
728
641
557
471
425
401
393
411
413
418
436
453
448
445
431
425
426
437
443
451
458
463
465
464
464
469
468
467
470
460
460
465
468
469
471
477
482
488
490
488
487
484
487
493
489
487
497
506
497
487
504
508
504
500
503
514
516
517
517
522
527
527
530
536
531
528
531
528
531
541
543
541
542
537
542
547
556
562
563
555
549
547
550
562
573
561
552
556
568
579
582
589
588
586
586
592
582
584
598
589
585
591
601
595
586
586
579
585
592
582
572
570
572
565
561
550
544
539
536
529
512
497
492
487
482
480
472
461
449
435
430
436
436
435
436
431
424
416
410
413
423
420
421
429
432
426
444
441
421
411
415
426
431
429
426
432
429
432
440
447
446
443
446
447
450
452
454
469
471
473
477
477
477
478
465
465
468
478
476
471
475
467
466
478
488
499
494
490
483
488
486
482
474
480
484
484
479
483
486
482
492
492
481
480
486
492
499
500
504
502
497
496
494
505
499
494
488
487
480
478
496
506
505
501
503
501
502
494
486
487
506
507
491
484
481
491
509
512
504
503
504
501
499
503
507
512
515
508
503
509
509
507
508
513
513
507
495
505
505
504
512
513
516
517
518
521
521
520
514
518
512
510
513
517
519
512
509
509
504
516
510
497
499
512
519
519
508
505
508
500
507
516
517
518
509
509
511
520
531
527
531
525
518
522
526
531
516
498
492
497
507
509
513
515
514
511
504
510
523
521
518
511
511
509
506
508
517
524
526
533
529
515
508
493
487
492
499
501
505
511
519
525
526
527
530
528
523
520
527
524
520
512
500
497
504
510
510
512
517
519
520
508
504
506
518
527
542
536
510
496
501
507
508
512
516
518
513
519
526
525
531
525
516
506
501
515
526
526
522
522
521
529
535
531
527
533
534
529
531
541
543
539
541
526
526
540
537
536
537
544
544
549
544
535
535
536
526
516
510
505
509
509
500
508
498
491
495
494
494
500
493
485
480
478
487
509
531
569
620
684
752
824
880
913
919
886
827
750
670
589
513
461
422
404
389
399
424
421
419
424
437
441
441
446
449
451
447
449
443
438
435
443
457
462
461
477
475
474
468
464
463
467
469
471
476
482
488
487
486
487
484
482
487
494
493
501
503
503
510
519
514
515
515
505
507
513
512
508
506
509
517
524
526
535
540
530
527
531
530
532
538
552
553
555
553
549
542
545
550
556
555
552
561
561
561
568
574
583
596
591
581
582
581
570
565
574
585
586
589
594
591
585
579
571
573
592
593
591
576
560
553
546
538
535
532
528
525
523
507
487
476
471
474
464
465
467
479
468
448
436
423
418
421
423
422
419
415
412
414
416
415
414
412
418
428
431
433
421
417
417
418
425
433
434
435
434
436
443
444
448
446
447
450
449
465
458
454
455
460
472
485
480
473
473
483
489
479
474
479
493
495
484
477
479
483
484
482
483
488
485
483
485
492
485
486
485
483
484
491
493
493
494
498
499
493
504
515
503
502
490
487
494
504
507
499
490
490
493
489
499
496
500
499
498
503
501
495
490
479
471
485
492
502
508
508
505
498
501
499
500
498
494
496
506
510
524
526
531
523
502
494
497
498
505
508
503
498
509
527
523
517
516
511
510
503
499
502
507
508
499
497
497
499
515
519
518
509
503
513
517
503
500
504
516
522
518
521
528
512
504
504
516
514
510
513
520
525
528
528
522
512
506
502
500
498
504
507
513
516
517
520
510
525
531
519
514
519
523
520
504
510
521
518
510
511
516
496
484
497
511
523
531
531
520
508
508
523
523
522
526
520
509
514
513
509
509
516
522
529
522
515
514
512
513
510
511
520
512
509
515
523
532
518
501
499
508
498
488
497
510
523
532
528
524
517
513
511
512
513
514
519
524
531
542
549
547
537
520
507
509
513
514
516
525
542
542
555
539
529
534
523
515
526
525
524
519
527
531
538
538
539
539
531
526
528
537
541
544
545
535
526
519
516
514
502
502
505
510
502
501
492
494
508
502
492
493
498
499
489
490
520
585
643
706
797
876
921
934
902
844
777
703
622
541
476
423
397
398
394
398
407
404
418
430
437
445
451
457
457
467
463
452
441
452
458
455
452
450
454
465
472
486
483
476
476
477
480
479
479
484
487
494
498
503
512
519
498
497
504
504
496
509
510
512
499
490
499
521
526
526
530
529
527
520
516
521
529
536
530
531
534
531
534
537
532
541
545
546
558
571
581
573
551
547
554
559
559
563
558
566
567
572
583
588
592
594
595
598
595
584
582
588
591
590
590
588
575
581
587
594
580
584
593
579
564
562
561
541
535
525
510
507
505
499
484
470
463
460
468
470
458
445
439
429
438
431
418
422
424
420
416
419
407
407
414
430
420
411
409
403
414
436
437
432
432
428
432
436
437
440
438
441
439
438
442
449
453
461
464
460
463
463
460
462
469
472
474
475
483
496
489
477
480
483
473
468
468
476
481
480
486
487
482
479
473
477
491
486
482
483
490
496
497
498
490
483
492
492
486
491
490
493
490
492
503
507
502
506
498
490
504
498
496
499
498
493
491
494
496
501
506
507
502
496
496
492
486
487
488
491
492
507
513
511
521
523
508
508
509
502
501
497
496
504
519
512
507
509
516
522
524
509
503
507
502
501
497
508
509
507
509
517
518
514
514
511
505
497
501
510
518
521
523
526
523
519
519
514
513
522
531
529
531
505
491
493
505
516
515
509
508
527
521
520
525
520
513
505
504
509
514
515
512
514
516
524
529
522
511
511
507
506
517
529
526
521
522
519
534
530
522
514
506
508
514
529
520
510
516
517
513
516
517
519
523
521
514
508
506
506
517
521
525
533
535
526
527
517
509
506
500
502
511
521
527
532
526
516
514
516
527
522
518
520
521
522
524
533
533
532
512
506
503
508
512
518
523
516
519
519
532
534
530
526
521
521
529
541
542
538
524
519
517
522
529
529
517
517
529
534
539
539
539
538
542
543
536
537
556
550
543
540
536
536
530
510
506
503
508
502
490
491
498
498
494
491
485
483
493
487
481
490
508
537
586
643
714
790
865
910
930
912
862
789
717
644
553
466
415
384
378
387
405
420
423
428
426
432
438
437
443
449
448
445
440
451
456
453
459
458
455
455
448
447
452
463
467
464
471
478
480
495
495
495
489
484
485
506
509
507
504
507
509
498
493
501
508
507
504
504
508
508
512
520
512
509
510
508
519
521
529
538
540
545
549
549
551
550
541
537
545
549
558
568
563
561
568
574
567
563
564
567
567
567
573
583
585
579
581
589
595
606
601
591
590
593
593
584
579
583
591
594
598
590
593
591
576
571
567
567
566
555
537
518
511
507
503
488
479
478
472
465
459
457
435
444
458
438
422
413
416
415
409
410
407
404
403
403
408
415
419
422
419
419
421
430
442
445
450
449
448
446
444
447
452
456
455
445
446
469
471
465
464
463
457
454
452
455
456
459
460
466
471
479
488
476
463
464
471
480
480
484
484
488
489
484
488
499
515
516
515
510
494
477
471
475
472
474
480
474
473
476
479
482
483
491
485
490
489
477
471
476
480
479
489
499
497
501
502
503
503
506
508
504
507
505
499
492
496
497
492
492
507
499
496
493
497
504
506
494
492
487
494
504
502
501
504
504
505
507
505
501
501
505
509
503
497
495
511
529
517
513
518
514
517
526
519
516
510
501
492
486
482
485
496
511
512
506
513
522
517
509
511
510
510
515
512
511
513
514
510
505
518
518
509
515
525
513
515
527
529
512
501
496
488
491
496
504
505
505
506
509
513
515
523
514
510
513
515
510
499
492
501
509
524
527
527
526
522
525
523
519
520
531
538
530
522
515
511
510
513
515
506
496
491
499
500
501
508
506
511
515
501
499
510
521
514
508
515
515
512
502
498
502
512
520
525
528
530
524
523
523
518
531
526
522
525
518
513
514
515
518
524
528
529
533
530
520
515
515
517
518
522
539
557
546
536
531
528
532
534
531
526
521
520
514
508
509
513
515
502
495
499
503
502
494
494
493
496
503
504
502
499
509
535
567
610
669
742
831
899
944
935
877
812
741
663
575
490
425
379
351
340
348
369
383
398
410
413
426
438
447
459
464
464
467
470
464
461
468
473
472
486
472
450
480
480
473
474
468
480
495
496
486
488
490
487
488
492
497
505
500
493
496
499
501
515
521
518
516
518
523
528
532
528
521
511
514
533
554
549
526
506
512
526
534
532
533
536
544
555
553
551
555
555
548
549
564
575
580
578
569
567
579
586
580
575
581
590
590
588
594
598
590
585
589
592
597
597
598
592
584
584
591
588
580
571
569
567
562
563
556
557
548
542
526
521
510
491
474
478
468
449
440
444
451
448
442
439
434
421
410
405
408
412
417
417
419
417
419
417
420
424
413
404
409
415
423
433
427
436
453
442
438
433
439
440
437
436
437
433
429
432
455
469
471
476
474
459
449
445
457
460
467
473
479
479
477
480
489
481
474
473
467
466
475
475
484
484
472
475
479
479
483
496
494
493
494
489
481
498
510
506
492
478
474
473
467
470
480
496
500
497
499
496
516
514
505
497
488
494
499
498
501
507
510
506
506
509
515
516
508
505
507
502
506
515
512
505
514
508
506
513
509
504
508
508
501
500
508
527
520
510
517
511
499
500
507
507
504
501
496
494
497
507
512
521
527
528
524
527
526
521
511
512
514
514
506
498
526
532
516
493
484
490
498
503
500
503
501
503
518
529
524
520
516
508
506
524
542
526
523
516
504
503
516
506
521
525
520
521
526
524
529
534
528
524
520
517
516
522
521
519
521
517
521
532
536
537
531
521
526
542
532
528
523
518
510
508
524
532
532
532
526
518
517
506
495
497
498
504
528
533
530
530
526
523
521
524
519
514
507
509
515
518
513
514
519
527
529
538
555
555
537
529
508
509
520
530
542
540
537
542
539
530
523
523
529
527
527
526
522
520
506
494
492
497
514
522
528
523
507
504
498
495
489
491
495
494
497
504
528
557
605
659
715
784
849
903
932
907
848
780
700
610
531
464
440
413
388
376
369
375
396
426
453
464
465
477
478
482
485
485
483
480
489
491
494
490
488
494
502
494
498
494
493
496
488
490
492
497
504
498
509
508
500
496
493
492
493
497
492
487
492
496
502
496
508
520
532
529
513
501
501
513
514
508
531
542
546
530
521
513
513
519
514
504
518
525
527
546
551
560
565
572
582
575
565
556
569
562
561
564
574
580
572
578
596
605
616
616
606
610
613
616
614
610
604
601
620
632
634
637
637
637
633
634
627
620
607
602
603
598
603
600
584
558
543
532
527
518
512
515
513
514
511
490
486
502
494
478
465
455
462
460
447
438
436
446
443
447
444
436
434
434
430
424
435
437
438
440
442
437
434
428
425
437
444
446
455
446
427
432
433
429
430
435
437
436
439
447
451
447
443
445
452
458
455
456
473
459
455
451
442
444
443
439
452
459
459
458
452
449
446
440
458
477
478
463
457
452
454
460
465
476
468
459
465
469
467
463
464
469
469
474
483
482
480
470
462
460
458
462
469
488
507
506
483
491
491
482
467
464
459
455
464
472
482
498
506
500
494
493
488
480
493
494
483
484
489
488
487
502
523
501
485
481
482
489
497
497
490
492
504
514
497
492
490
483
478
485
496
501
501
494
487
486
488
501
512
495
477
473
478
489
494
498
495
491
495
486
482
492
504
505
493
492
503
502
502
505
494
506
497
483
497
500
483
476
473
477
481
488
492
494
489
481
481
494
494
494
496
495
491
494
498
510
517
538
543
524
512
506
505
508
510
503
495
492
493
491
502
504
505
520
522
506
495
495
502
513
519
518
508
513
521
522
518
523
527
525
517
514
510
511
521
526
523
509
505
512
512
515
510
513
518
512
517
513
508
505
493
485
480
493
496
485
476
479
488
505
523
503
470
470
485
484
473
476
490
519
554
593
646
710
777
840
877
887
851
771
699
638
566
498
435
397
374
358
352
368
407
448
479
495
489
480
481
474
451
451
455
482
523
540
538
517
494
470
465
480
498
513
531
541
557
572
601
640
648
600
573
587
599
630
685
711
743
833
932
1005
1023
1023
1023
1023
1023
1023
1023
1023
1023
1023
1023
1023
1023
1023
1023
1023
1023
931
765
621
542
542
555
630
796
1023
1023
1023
1023
1023
1023
1023
1023
1023
1023
1023
1023
1023
1023
1023
1023
1023
1023
1023
1023
1023
1023
1023
1023
1023
1023
1023
1023
1023
1023
1023
1023
1023
1023
1023
1023
1023
1023
1023
1023
1023
1023
1023
1023
1023
1023
1023
1023
1023
1023
1023
1023
1023
1023
1023
1023
1023
1023
1023
1023
1023
1023
1023
1023
1023
1023
1023
1023
1023
1023
1023
1023
1023
1023
1023
1023
1023
1023
1023
1023
1023
1023
1023
1023
1023
1023
1023
1023
1023
1023
1023
1023
1023
1023
1023
1023
1023
1023
1023
1023
1023
1023
1023
1023
1023
1023
1023
1023
1023
1023
1023
1023
1016
885
769
663
561
454
336
214
117
64
36
21
12
8
5
4
3
2
2
2
1
1
1
1
1
1
1
1
1
1
1
1
1
1
1
1
1
1
1
1
1
1
1
1
1
1
1
1
1
1
1
1
1
1
1
1
1
1
1
1
1
1
1
1
1
1
1
1
1
1
1
1
1
1
1
1
1
1
1
1
1
1
1
1
1
1
1
1
1
1
1
1
1
1
1
1
1
1
1
1
1
1
1
1
1
1
1
0
1
1
1
1
1
1
1
1
1
1
1
1
1
1
1
1
1
1
1
1
1
1
1
1
1
0
1
1
1
1
1
1
1
1
1
1
1
1
1
1
1
1
0
1
1
1
1
1
1
1
1
1
1
1
1
1
1
1
1
1
1
0
1
1
0
1
1
1
1
0
0
0
0
1
1
1
0
0
1
1
1
1
1
1
1
1
1
1
1
1
1
1
1
1
0
