527
532
520
500
486
481
492
512
529
534
524
504
488
483
493
513
530
538
528
509
494
488
498
519
538
543
532
513
496
493
504
523
539
543
532
512
497
493
503
522
539
544
534
515
499
493
504
523
540
545
535
515
498
492
501
521
540
547
536
515
499
494
504
523
539
544
533
513
497
491
500
519
534
539
529
509
494
488
496
516
532
538
528
509
493
488
498
518
533
538
527
508
494
489
498
518
536
542
532
512
495
490
499
517
533
538
527
508
493
488
499
519
535
539
529
510
494
490
500
520
535
539
528
508
493
487
496
516
532
537
527
508
493
488
497
517
533
539
528
509
495
490
499
517
534
540
530
511
495
489
499
519
538
543
532
514
499
493
504
524
539
544
534
514
497
492
501
519
535
542
532
511
494
488
496
517
534
539
528
508
493
487
497
516
532
537
525
507
492
487
496
514
530
536
525
504
488
483
493
514
531
536
526
508
493
488
499
519
535
540
527
506
491
485
495
515
532
537
527
507
492
487
497
515
530
536
525
504
488
483
495
515
531
536
524
505
489
485
496
517
534
540
529
509
493
489
500
521
537
542
531
511
495
489
499
520
537
542
530
509
493
487
498
517
534
540
529
509
492
487
498
518
535
539
527
508
492
487
497
517
534
539
530
510
494
490
501
521
537
543
533
514
497
492
502
521
538
543
532
512
494
489
499
518
534
540
529
510
495
489
500
521
539
544
532
511
495
490
502
522
539
545
533
514
499
492
500
520
538
544
532
511
496
490
498
518
535
540
529
508
492
488
500
520
537
543
532
511
494
487
498
520
537
542
529
509
495
490
500
519
535
540
529
509
494
489
499
518
535
541
528
507
492
487
498
517
534
540
528
507
493
490
501
521
538
543
532
513
498
493
504
523
539
543
532
513
499
494
504
524
541
548
537
517
501
495
503
523
540
546
535
516
499
493
502
521
537
542
532
512
496
492
504
525
541
547
535
515
498
492
500
517
533
540
530
510
494
488
499
519
536
543
532
511
495
490
499
519
534
539
528
509
496
492
504
524
540
545
535
516
500
495
504
522
538
544
533
513
496
491
501
520
537
543
533
515
499
494
504
523
540
546
534
514
498
492
503
524
541
548
537
517
502
498
509
528
543
547
535
514
498
493
504
524
540
544
532
513
497
493
504
524
541
546
535
516
500
494
504
523
539
545
536
518
503
499
509
527
541
544
533
513
497
491
500
520
538
544
532
513
498
495
507
527
543
549
537
517
500
494
503
524
539
543
533
516
501
497
508
526
542
546
534
515
497
492
503
523
540
546
536
515
497
491
501
520
535
540
529
510
494
489
500
520
536
541
529
510
495
490
500
521
536
541
529
510
497
494
504
524
540
546
536
517
501
496
507
527
546
553
543
524
509
504
513
531
546
551
540
520
504
497
507
527
544
548
537
517
500
495
506
526
542
545
533
514
497
492
503
523
539
543
533
514
499
494
506
525
539
545
535
515
498
491
500
519
536
542
531
512
496
492
504
524
540
545
533
512
496
491
501
521
537
541
530
511
497
492
501
519
535
541
530
511
496
491
502
521
538
543
533
513
496
491
501
518
533
538
528
509
493
490
501
522
539
544
532
514
498
492
502
521
538
543
530
510
494
489
500
520
537
544
533
514
499
496
507
525
542
548
538
519
502
496
505
525
540
545
535
516
502
498
509
529
545
551
540
521
505
501
512
530
545
550
539
519
502
498
510
529
545
549
537
517
500
495
505
523
539
546
536
517
500
495
505
525
541
547
537
517
499
493
504
525
540
543
533
515
499
494
504
524
540
545
534
515
499
494
504
524
541
546
533
514
498
495
504
523
540
544
534
516
500
495
505
523
539
544
533
515
499
494
504
522
540
546
535
516
500
494
504
523
539
543
532
512
496
492
502
521
537
542
530
509
493
488
499
520
537
543
532
513
496
490
500
519
535
540
529
512
497
492
500
517
533
538
527
507
492
487
497
514
529
533
523
504
488
485
496
514
532
538
526
505
489
484
494
513
529
535
526
507
491
486
496
516
532
537
525
505
489
484
494
513
531
537
525
504
490
485
497
517
532
535
524
505
490
485
497
517
532
536
525
506
492
488
499
518
534
538
526
507
491
486
496
517
534
539
528
510
497
493
504
524
541
547
536
515
500
496
507
525
539
543
531
510
494
489
498
517
532
538
527
508
492
488
498
516
531
537
526
507
490
486
497
517
533
538
528
510
494
488
498
518
536
541
530
511
495
490
501
521
535
539
526
505
489
484
495
516
534
540
529
510
496
492
504
523
538
543
534
516
502
498
508
528
544
549
538
519
502
496
505
524
541
547
535
513
495
489
500
519
535
539
528
509
496
492
503
524
539
543
531
512
496
492
503
523
539
542
531
512
496
493
504
522
538
543
532
513
497
493
503
522
539
544
534
515
499
492
502
522
538
542
531
512
497
494
504
524
540
544
534
516
500
495
504
523
538
543
532
513
498
495
507
526
542
547
536
516
499
496
509
529
545
550
540
521
507
502
512
530
544
548
536
518
504
499
509
529
544
548
536
515
497
493
503
522
538
543
531
512
497
492
501
520
537
542
530
510
496
493
504
523
538
542
531
511
495
491
500
520
539
545
535
516
501
497
508
529
546
551
539
519
502
497
507
526
541
545
533
514
498
494
505
524
538
541
529
510
496
491
502
524
540
545
535
516
499
492
502
522
539
545
534
514
498
492
503
524
541
546
532
511
495
490
500
521
537
542
532
513
498
494
503
521
538
543
530
511
496
491
501
520
536
541
530
510
494
489
500
519
534
538
528
507
491
485
495
516
533
538
527
508
494
489
498
517
533
538
527
506
491
487
497
515
531
535
525
507
491
486
495
514
529
536
528
509
494
489
499
519
535
543
534
514
498
492
501
521
539
545
534
515
499
494
504
525
541
547
535
516
501
496
508
528
544
550
539
519
502
498
510
529
543
547
537
518
503
498
507
526
542
546
536
517
501
494
503
523
540
545
533
513
497
491
500
519
534
538
526
506
493
490
502
521
537
542
531
513
496
491
501
519
535
539
529
509
493
487
497
516
533
538
528
511
497
493
504
524
539
544
532
512
496
491
501
520
535
539
527
507
493
490
502
523
538
542
531
511
496
491
501
522
540
544
534
514
499
493
504
524
539
544
533
516
502
498
508
527
543
548
537
516
501
496
505
525
541
548
536
516
501
498
510
528
543
548
538
519
502
496
506
526
542
546
535
516
502
497
507
525
542
547
535
514
498
494
506
527
543
547
534
514
499
496
508
528
544
548
535
516
500
495
505
524
539
543
531
510
494
490
501
521
538
543
533
513
498
492
502
521
537
541
530
511
497
493
504
523
540
545
535
516
501
495
505
523
539
545
534
515
500
497
508
527
542
546
534
515
498
493
505
525
540
544
533
515
500
495
507
527
543
549
538
519
503
496
504
522
538
544
533
514
499
494
504
523
538
544
534
515
499
494
504
524
540
546
535
514
497
493
504
524
540
543
532
513
497
494
505
524
539
544
532
512
496
492
502
521
536
541
531
513
497
491
502
522
538
542
530
509
493
489
501
522
538
542
530
510
496
492
504
524
539
543
531
510
496
492
502
523
539
542
531
512
496
490
500
520
537
543
532
513
498
494
505
523
537
542
533
514
500
495
506
525
542
546
533
513
499
494
504
525
541
546
535
516
500
496
506
525
542
546
534
514
500
496
506
525
541
547
537
517
499
493
503
521
536
542
531
512
496
493
505
526
543
548
537
519
505
500
508
526
541
544
532
512
496
492
502
522
538
542
530
510
495
491
500
518
533
538
526
506
492
487
497
516
532
537
527
508
493
490
501
521
537
540
529
510
494
488
498
518
536
542
531
510
495
491
502
521
536
539
526
505
490
485
496
516
532
538
528
509
495
489
499
517
533
539
530
511
495
490
501
521
537
543
532
511
494
486
496
515
532
538
527
507
492
487
497
515
532
538
528
510
496
494
506
525
540
543
530
511
497
492
502
521
537
540
529
509
493
488
497
516
533
537
527
510
495
489
499
517
532
536
525
506
492
490
502
523
539
543
532
513
498
494
506
525
540
545
534
515
499
495
507
527
543
546
533
514
498
493
504
523
539
546
536
516
499
493
503
521
537
542
532
514
500
494
503
523
540
545
533
512
497
493
503
521
536
541
531
513
499
494
505
525
540
543
530
512
498
495
505
525
541
546
536
517
502
496
507
527
542
546
534
516
501
497
508
527
542
547
535
516
502
497
507
527
543
549
538
518
502
496
507
526
540
545
534
515
500
496
506
526
540
542
530
511
497
494
505
522
537
541
530
512
498
494
507
528
544
547
536
518
503
498
508
528
543
548
535
515
501
498
510
530
544
548
536
517
502
498
507
525
541
545
534
514
500
496
507
526
541
545
532
511
495
492
504
524
538
542
532
513
498
494
504
524
540
544
533
514
500
495
506
526
541
545
533
514
499
494
504
523
538
542
530
510
494
491
502
520
535
539
527
508
493
488
498
516
531
536
527
508
493
488
500
520
535
539
527
508
492
487
498
517
534
538
527
508
494
490
501
519
536
539
527
508
494
490
502
522
538
542
530
509
493
490
500
517
531
536
526
509
494
490
500
520
536
543
532
513
496
491
501
520
537
542
530
510
494
489
499
518
533
536
524
504
489
484
495
514
530
534
523
503
488
483
492
512
528
533
523
505
492
488
499
518
533
536
524
505
491
487
498
519
534
537
524
505
489
485
495
513
530
535
523
504
489
486
498
517
533
539
528
509
493
489
499
519
534
538
527
507
493
490
503
522
538
542
530
510
495
489
499
518
534
539
527
508
493
488
497
516
532
538
526
509
497
493
504
524
540
544
533
513
497
492
502
519
534
538
527
508
493
488
497
516
532
537
525
505
490
485
496
516
532
535
522
504
491
488
500
519
535
539
528
510
496
494
505
525
541
544
532
513
496
491
500
519
535
541
531
512
496
491
501
518
534
537
525
506
492
486
497
517
534
539
527
508
494
491
502
520
535
539
528
509
494
490
501
520
535
538
526
506
492
489
500
520
535
540
529
509
494
491
502
522
538
542
529
509
493
490
501
521
538
544
532
511
496
491
502
523
538
541
529
509
493
489
501
521
536
540
529
509
494
491
501
519
533
536
525
506
492
489
500
520
536
540
528
508
494
490
502
522
537
540
527
507
491
485
496
517
532
536
523
503
488
486
499
518
533
537
526
508
494
489
499
518
533
537
525
507
493
488
499
516
531
535
525
506
492
489
499
519
535
540
529
510
495
491
500
518
533
536
523
506
494
491
504
523
538
543
531
512
498
494
503
521
534
539
528
511
497
493
502
521
537
542
530
510
497
493
504
525
541
546
533
513
497
492
502
521
537
541
530
510
495
490
500
519
536
540
527
506
490
485
496
514
529
533
521
503
489
484
494
513
529
533
521
502
488
483
494
513
529
534
523
503
489
484
495
514
529
534
522
502
488
484
495
515
532
537
525
505
490
486
497
517
532
537
525
505
491
487
498
519
535
538
525
505
491
487
497
515
531
537
527
509
495
492
502
521
534
536
525
505
491
488
499
519
535
540
528
510
496
491
501
519
536
541
530
511
497
494
505
525
539
544
532
513
498
492
502
523
539
545
534
515
500
497
509
529
544
547
535
516
501
497
508
527
542
545
532
514
499
494
505
524
539
543
531
512
497
493
503
520
535
538
526
506
492
487
499
519
535
541
529
509
495
491
500
520
536
539
527
508
493
490
502
522
537
541
529
509
495
492
502
519
534
538
527
510
497
494
505
523
538
541
530
510
493
488
497
517
533
537
526
507
492
488
498
517
534
540
527
506
490
486
500
521
536
540
528
508
494
490
502
524
539
541
528
509
495
491
502
523
541
545
536
519
504
499
509
527
544
549
538
519
502
496
507
526
542
547
536
515
499
496
507
527
542
545
532
513
497
493
504
524
541
545
534
515
501
497
507
525
541
545
531
510
495
491
502
522
538
542
531
514
498
493
502
521
537
541
531
511
495
491
501
521
537
541
530
510
496
492
9
516
509
495
491
504
525
539
542
530
511
496
493
505
526
541
543
530
511
498
496
508
527
541
544
532
514
499
496
508
528
542
543
530
512
498
496
510
529
542
544
533
514
498
494
505
525
539
541
529
510
496
494
507
526
540
541
526
507
494
492
504
524
539
541
528
508
494
492
504
523
537
539
526
506
492
490
503
522
535
536
523
504
490
488
501
520
534
536
523
504
492
490
502
522
536
539
525
504
490
487
501
521
536
539
525
505
492
490
502
521
536
537
523
503
490
488
501
520
533
535
522
502
487
484
497
516
532
534
519
498
484
482
495
516
532
535
520
499
484
481
495
514
528
531
517
497
484
483
496
516
528
528
515
496
483
483
497
518
532
535
523
504
491
489
503
525
540
541
527
505
490
487
500
522
537
539
525
505
491
489
502
520
532
533
519
500
487
486
500
518
531
532
520
502
491
489
503
523
536
537
523
504
492
490
501
520
534
535
521
502
488
486
501
523
540
542
528
505
491
490
504
524
538
541
528
509
495
493
508
529
544
546
533
514
500
497
509
527
539
539
525
507
496
496
509
527
539
539
527
509
496
495
507
527
542
543
528
507
494
493
505
524
539
539
525
506
493
492
505
524
538
540
526
506
493
491
505
526
538
538
524
506
494
493
506
526
539
541
527
508
495
492
503
523
538
539
522
502
488
486
502
524
538
539
525
505
490
490
505
525
538
538
523
504
492
491
503
522
536
536
521
502
490
489
502
521
534
536
522
502
489
487
500
520
534
536
524
505
493
492
505
525
538
538
523
502
489
488
503
525
538
537
522
502
490
490
504
525
539
537
524
506
494
493
507
526
538
537
523
505
493
494
509
528
543
544
530
512
500
498
510
529
541
541
527
509
495
494
508
528
542
541
524
504
492
492
507
528
540
541
527
509
496
495
508
525
537
537
525
505
492
490
502
520
535
538
524
504
492
492
505
525
539
538
521
501
489
490
506
528
542
541
526
507
494
493
507
526
539
537
520
501
489
490
504
523
535
534
522
504
492
491
505
525
539
539
524
504
491
491
507
527
540
539
524
505
493
494
509
529
542
542
527
507
496
496
511
530
543
542
525
505
494
495
509
527
539
540
527
509
497
498
513
530
542
542
529
512
500
498
512
530
543
543
529
510
497
496
511
530
541
539
524
505
494
493
507
527
540
538
522
503
493
494
507
526
538
536
522
505
495
496
509
528
540
539
524
506
496
497
512
530
542
541
526
506
493
492
507
527
539
537
523
504
493
493
508
528
541
540
526
508
498
500
514
533
545
543
527
509
498
499
514
532
544
543
529
510
496
496
511
531
545
545
530
512
499
500
517
537
548
546
530
512
500
502
517
535
547
546
530
510
498
499
516
536
547
544
528
508
498
500
514
531
540
538
524
505
492
493
508
526
537
535
520
502
491
492
507
526
538
536
521
502
491
492
506
526
539
538
523
505
493
493
508
527
539
539
524
507
496
498
513
530
542
540
524
505
495
497
512
530
541
539
524
506
495
496
512
532
543
539
522
503
493
494
509
527
539
538
522
504
494
496
512
531
543
542
525
506
495
495
509
527
539
539
525
506
494
495
510
530
543
542
528
510
499
499
514
533
545
543
526
506
493
495
513
533
544
542
525
506
495
496
512
530
540
537
522
505
494
496
512
531
542
539
524
507
496
497
512
529
540
539
523
506
496
498
512
530
543
542
527
508
496
497
512
533
546
543
527
509
499
502
518
536
546
544
528
510
500
503
519
537
549
547
532
515
505
507
525
544
554
549
533
515
505
506
521
537
548
544
529
511
502
505
521
539
548
544
529
510
501
506
522
540
549
546
531
512
501
503
518
536
546
543
527
510
499
501
514
529
537
534
519
499
488
489
504
522
533
530
514
495
483
484
498
517
528
527
514
498
488
491
505
522
533
530
515
496
486
488
504
523
536
533
517
499
488
491
506
525
536
533
517
500
490
492
507
527
539
537
523
505
494
495
510
529
539
536
520
503
492
495
511
529
540
537
523
506
495
496
512
531
542
538
521
502
492
496
513
532
544
540
524
507
498
501
517
534
545
542
528
511
500
502
518
536
547
543
527
508
497
498
514
533
545
541
523
503
492
495
510
531
542
538
523
506
496
498
514
532
541
536
519
500
489
493
509
527
538
535
518
500
491
494
509
529
541
538
522
504
495
497
512
529
539
535
520
502
491
494
510
528
539
535
518
499
490
493
509
527
536
532
516
498
488
491
508
527
540
538
522
505
496
499
515
531
540
536
521
503
494
498
515
533
544
537
520
502
493
495
510
528
538
534
519
503
494
497
514
531
540
535
517
500
490
493
511
530
540
536
520
502
490
493
508
527
539
535
519
501
492
495
511
529
539
533
516
498
487
490
505
523
534
530
513
496
487
490
505
525
536
531
513
495
485
487
503
523
535
532
514
495
486
490
505
523
533
529
511
493
484
489
507
525
534
529
513
497
488
492
509
526
535
532
516
499
490
493
507
525
537
533
516
499
490
494
510
530
540
536
520
502
493
497
514
532
541
535
518
499
490
495
511
529
539
535
518
500
492
495
510
529
540
536
520
501
492
495
509
528
538
534
517
498
489
491
507
525
536
532
516
498
489
494
510
527
536
532
515
498
489
493
508
524
534
530
514
497
488
493
509
527
538
532
514
496
487
491
508
527
538
532
514
496
488
493
510
528
538
532
515
497
488
493
510
527
535
529
512
494
486
491
508
526
534
529
512
495
486
490
507
525
535
531
515
499
491
494
510
529
540
536
520
502
493
497
514
532
542
536
517
497
486
491
509
528
537
532
515
497
489
492
508
526
536
530
513
496
487
492
510
530
539
534
517
498
488
491
507
526
537
533
516
497
489
494
509
528
536
531
515
498
487
492
509
528
539
534
517
500
491
496
512
529
538
532
513
496
486
490
507
525
535
530
514
497
489
494
511
530
540
536
520
502
492
498
515
532
541
536
517
499
491
497
514
530
537
532
517
498
489
494
510
527
536
530
514
498
489
493
509
528
537
530
513
495
487
494
513
531
540
533
516
498
489
494
510
528
538
533
517
499
490
494
512
531
539
534
516
500
491
494
512
530
539
533
514
496
489
493
510
528
537
530
512
496
488
495
514
532
541
534
516
499
490
494
511
530
539
534
518
501
492
497
514
531
538
531
513
496
487
491
509
527
537
531
513
496
488
495
513
531
539
533
516
500
493
498
515
531
539
532
514
496
487
492
509
528
537
530
512
496
488
492
509
528
537
531
513
496
488
493
511
528
537
531
513
496
488
493
510
528
537
530
513
496
486
490
507
526
537
532
514
496
487
492
508
526
534
528
512
495
486
491
508
525
534
529
513
497
489
495
512
529
538
532
514
496
488
494
510
526
533
526
509
492
484
492
510
528
537
531
515
497
488
494
512
531
541
535
517
501
493
498
515
532
541
534
516
498
489
494
510
528
538
531
514
498
489
494
512
529
538
532
514
497
488
494
511
529
538
531
513
496
488
494
512
530
540
534
517
500
492
498
515
531
540
534
517
499
491
496
512
530
539
532
514
495
486
492
508
527
535
529
512
494
486
493
512
530
540
532
514
497
490
495
511
527
536
530
514
497
490
495
513
530
540
534
516
497
489
495
511
527
536
530
513
495
487
495
512
529
537
528
510
494
487
493
512
531
540
534
516
499
493
499
516
531
540
534
517
501
493
499
515
532
541
534
517
500
491
496
513
530
541
535
517
501
492
497
515
531
539
531
514
498
491
498
515
533
541
533
516
500
494
502
521
539
547
540
523
508
502
509
526
543
551
545
527
509
501
508
525
541
549
542
525
508
500
506
521
536
542
532
515
500
