492
506
523
533
531
516
499
489
492
506
524
535
532
516
498
487
490
504
522
534
531
515
497
488
490
504
522
534
531
517
500
491
493
507
524
535
530
514
498
489
491
505
522
533
530
514
496
487
491
505
521
532
528
482
496
515
528
528
516
497
484
484
499
519
533
532
517
498
487
487
501
521
533
533
518
499
487
487
502
522
538
539
524
504
492
492
506
524
535
534
521
503
492
493
506
525
538
537
522
505
492
491
505
523
535
534
520
502
491
493
507
526
538
536
523
506
492
490
503
523
536
535
520
502
491
492
507
526
538
536
521
504
494
497
513
530
540
538
523
504
492
493
508
526
538
538
525
509
498
498
513
532
544
542
527
508
494
494
507
527
539
538
523
505
494
494
508
528
540
538
523
505
493
493
507
525
537
536
522
505
493
491
504
524
537
535
521
503
492
492
507
525
536
536
522
504
493
493
508
526
537
537
523
505
493
495
510
529
540
538
524
507
497
499
514
532
542
539
524
506
495
497
513
531
543
541
527
508
496
497
511
529
541
538
522
504
494
495
509
528
541
540
525
507
495
496
510
529
540
537
521
505
496
498
514
532
543
539
523
505
495
495
510
528
540
538
524
506
494
495
510
529
540
537
522
503
491
493
508
526
537
534
519
501
490
492
506
524
536
531
515
497
486
486
498
516
528
527
513
496
485
487
501
520
532
530
515
496
486
488
503
522
533
531
516
497
485
487
502
519
530
528
512
495
485
488
502
520
532
531
517
499
486
486
500
518
530
527
512
496
485
488
503
521
533
532
517
499
487
489
503
521
531
528
514
497
487
491
508
528
539
535
520
501
490
490
502
520
530
526
511
495
485
487
502
520
530
527
510
494
484
487
501
519
529
527
512
495
484
485
499
517
528
525
508
491
481
483
497
517
530
526
510
492
481
482
496
514
527
526
511
494
484
487
502
520
532
529
512
495
484
486
501
520
531
527
512
494
484
486
499
517
529
528
513
497
487
488
504
522
532
528
513
495
485
487
501
519
530
526
510
493
482
485
501
519
530
526
510
492
482
484
499
517
529
527
512
494
484
487
503
521
532
529
514
498
488
492
507
522
531
527
512
494
484
488
504
521
532
528
512
494
484
487
504
523
533
529
514
498
489
493
508
524
533
527
511
494
485
488
504
522
532
527
512
495
486
489
503
520
529
525
510
493
482
484
500
519
530
526
511
494
483
487
503
521
533
530
514
497
485
488
504
522
531
527
510
491
481
484
499
518
530
526
511
494
485
489
505
523
533
527
510
492
482
485
500
518
529
525
508
491
480
482
497
516
529
527
510
493
484
487
503
522
532
528
511
493
484
488
503
519
529
524
507
489
480
483
499
519
530
526
508
489
480
484
500
519
530
526
509
492
482
485
501
520
529
524
508
492
483
487
502
521
531
526
509
491
480
483
499
518
529
525
509
493
484
488
504
522
530
525
509
493
484
487
503
521
531
527
512
495
485
490
509
529
539
533
516
498
488
492
508
526
535
529
514
497
488
490
506
523
533
528
511
493
481
484
500
520
531
527
510
493
484
488
505
525
535
530
516
499
490
495
513
531
541
535
518
501
493
498
514
531
540
534
517
499
489
494
512
531
541
536
518
500
491
494
510
528
538
533
517
501
492
496
512
530
539
532
516
499
489
493
510
528
538
532
515
497
488
493
510
527
535
531
515
498
490
495
510
527
536
531
515
499
490
494
510
526
534
528
510
494
486
491
508
525
532
525
506
489
481
487
504
522
531
524
507
490
481
488
507
526
535
529
512
495
486
490
505
523
531
525
508
492
484
489
505
522
531
526
509
493
484
488
505
523
532
526
508
492
484
488
505
524
534
529
514
496
487
492
509
527
537
531
515
500
492
497
514
531
538
530
512
495
486
491
508
526
535
529
512
494
485
489
505
523
534
528
511
495
488
492
508
525
535
530
514
498
490
495
512
528
535
528
512
496
487
492
510
528
536
530
513
497
489
494
511
527
535
527
511
497
490
496
512
531
541
534
516
499
491
496
512
529
537
530
514
497
488
494
513
530
536
527
508
490
482
488
505
524
532
524
506
490
484
490
507
525
534
528
512
496
489
494
510
526
534
527
509
492
484
489
507
526
535
529
511
495
488
496
514
530
538
529
510
495
488
494
508
524
531
523
505
491
484
489
505
522
530
524
509
494
487
492
509
527
535
528
510
492
482
487
503
522
531
525
508
494
487
494
512
529
537
529
512
497
489
495
511
529
538
529
512
496
488
494
510
526
535
529
512
496
489
495
511
526
532
526
509
493
487
494
510
526
535
527
510
494
487
493
509
525
532
524
505
488
482
490
509
526
532
522
505
490
484
490
504
520
527
520
503
488
481
488
506
523
531
522
504
488
480
486
503
521
528
520
504
489
483
490
509
527
535
527
510
491
483
489
507
524
530
521
503
486
479
485
503
521
529
521
505
491
485
493
509
527
532
523
505
488
481
487
503
519
528
521
505
489
483
490
508
526
533
525
507
491
484
493
512
530
537
528
511
496
490
499
518
536
542
531
514
500
495
503
522
537
543
534
517
502
494
500
517
532
539
531
515
500
493
500
518
535
542
532
514
499
492
499
517
534
540
530
513
497
492
500
518
534
540
532
515
499
491
498
516
532
539
532
515
499
492
498
515
530
535
526
508
492
487
495
512
528
535
526
508
494
487
494
512
528
535
526
508
492
486
496
514
530
537
527
510
495
490
498
517
533
539
531
513
497
491
498
514
529
536
528
511
497
491
497
515
532
539
530
512
495
488
497
514
530
537
529
511
495
490
499
517
533
539
528
510
495
490
498
516
533
540
532
514
498
492
500
517
532
539
531
515
500
493
501
516
530
537
528
510
496
491
499
517
532
538
527
508
492
487
496
514
532
537
527
510
494
488
497
515
530
537
527
509
495
490
499
517
532
537
529
513
498
492
500
516
532
538
530
513
498
493
503
521
538
543
533
516
500
493
501
519
536
541
530
513
499
494
504
524
538
542
530
512
498
492
500
518
533
539
529
512
498
492
501
519
532
537
526
507
492
485
493
511
528
534
525
507
493
488
497
517
533
538
528
509
494
490
503
521
535
539
528
510
496
492
501
518
533
537
527
508
494
489
498
516
532
539
529
508
492
487
496
514
530
536
525
505
488
481
490
508
523
527
518
501
487
481
493
514
533
539
528
508
491
486
495
511
525
529
519
502
488
482
491
510
526
531
520
502
487
482
490
507
523
529
519
500
486
480
490
508
524
530
522
505
491
486
496
514
528
533
523
506
493
490
499
516
532
537
529
511
497
492
501
519
533
538
527
509
494
489
497
514
531
537
526
506
491
488
499
519
535
539
528
508
493
488
498
518
534
540
529
510
496
491
499
517
531
535
526
509
495
490
497
515
531
536
526
508
494
490
500
518
534
538
526
506
491
485
494
514
530
534
523
505
492
488
498
517
533
539
529
512
498
494
504
522
536
540
527
510
495
490
502
522
538
542
532
516
501
496
507
526
542
547
536
516
499
493
502
522
538
542
531
512
497
493
504
525
540
543
532
514
499
495
504
522
537
541
528
508
494
492
503
522
536
540
529
511
495
489
499
519
536
541
530
513
499
495
506
524
539
543
533
516
501
497
508
528
542
545
531
512
499
495
506
525
540
544
531
513
499
496
506
525
540
543
531
514
500
496
508
527
541
544
533
514
500
496
506
524
538
542
533
515
500
496
508
527
541
544
532
514
499
496
508
527
541
544
532
513
498
494
507
526
541
544
533
516
502
498
510
527
541
542
530
513
500
497
509
527
541
543
531
513
498
494
505
525
540
543
530
511
497
494
505
522
535
536
524
506
494
493
506
525
539
541
529
510
496
493
504
523
537
539
526
508
495
491
500
517
532
535
524
506
492
489
500
519
535
538
526
507
493
491
502
520
533
534
520
501
487
485
498
518
531
534
522
505
493
489
500
519
534
536
524
505
492
489
500
517
531
535
522
503
489
487
498
517
530
532
521
502
488
485
496
515
529
532
519
501
489
485
497
516
529
530
516
498
485
483
495
515
530
533
520
501
488
485
496
515
530
533
521
504
492
491
504
525
538
540
526
507
492
488
499
519
533
534
521
504
492
490
503
523
537
540
527
507
493
489
501
519
532
533
519
499
487
486
498
517
532
535
522
503
490
488
499
518
531
533
521
503
490
488
501
520
533
535
522
504
492
490
502
520
534
535
522
503
488
484
496
516
530
532
520
502
488
486
498
516
529
529
517
499
487
483
494
513
525
526
515
499
488
488
502
520
533
534
520
501
489
490
502
520
534
538
524
506
493
490
502
520
533
535
522
503
491
490
503
522
535
537
524
505
492
490
503
521
535
537
523
504
491
488
500
520
534
535
521
501
487
485
498
517
531
533
520
500
487
486
499
518
530
530
517
500
488
487
500
519
533
535
523
504
491
491
506
523
534
534
520
501
489
487
497
514
528
530
516
497
485
483
495
512
527
528
516
498
487
485
498
516
528
528
514
496
482
482
496
514
527
527
512
493
480
479
492
512
526
526
512
493
481
480
494
514
527
528
514
497
485
485
498
516
529
530
515
495
484
484
498
516
528
527
512
494
483
483
497
516
529
528
513
495
484
484
497
516
529
530
516
497
484
483
496
514
528
529
516
499
487
484
496
514
527
528
515
496
485
486
500
518
531
531
514
495
484
484
499
519
532
532
519
500
487
485
498
517
530
531
517
501
491
489
501
520
532
531
516
497
484
483
497
517
531
531
516
497
486
486
500
519
532
533
518
501
490
490
503
523
536
534
519
500
487
487
501
520
533
532
516
498
487
487
501
522
535
534
519
500
488
488
503
521
533
532
516
498
486
485
498
516
528
528
515
495
482
482
496
515
527
524
510
492
480
479
492
510
524
524
507
491
481
483
495
512
524
525
510
491
478
476
489
507
523
525
512
496
485
484
496
515
527
526
511
493
483
484
498
517
529
529
515
497
486
487
501
520
532
532
518
499
488
489
503
523
536
534
519
501
491
492
507
524
534
532
517
499
489
490
504
522
533
531
516
499
487
488
503
522
533
531
516
499
488
487
500
519
529
527
510
491
481
482
497
518
531
528
512
493
483
484
499
517
530
529
514
496
486
489
505
523
535
532
516
497
484
484
499
519
533
532
517
500
490
491
504
522
534
533
517
500
490
491
504
522
532
529
514
496
485
485
499
518
533
533
519
500
488
488
501
519
530
527
510
492
481
482
496
515
527
524
508
490
480
481
496
517
530
528
511
493
484
485
498
516
527
525
510
494
485
487
502
519
530
528
513
497
487
488
502
519
529
527
513
497
487
490
506
525
537
534
517
500
490
493
508
525
536
535
519
499
488
490
507
528
539
537
521
503
493
493
505
524
535
531
516
499
491
494
510
528
539
535
519
501
491
493
506
524
536
533
517
501
492
494
508
526
538
536
520
502
493
496
511
527
539
538
522
503
493
497
513
531
543
541
525
506
494
496
513
532
545
542
527
509
498
499
512
529
540
539
525
507
496
498
513
533
545
543
527
508
497
500
516
534
544
541
525
505
492
493
509
527
537
536
522
504
494
496
511
528
540
537
522
505
493
495
511
530
542
539
525
507
497
501
517
533
542
539
523
505
493
493
508
526
536
534
521
504
494
496
513
530
540
538
523
507
497
499
513
530
540
536
519
501
490
493
509
528
540
538
521
502
492
495
511
530
540
537
521
501
490
493
509
528
539
536
520
501
490
493
508
524
534
529
513
497
490
493
508
527
537
532
514
494
485
489
506
526
537
535
520
502
494
496
512
530
541
536
519
500
491
496
513
531
541
536
519
501
491
493
508
526
536
532
516
499
490
491
506
526
535
532
517
499
489
493
510
529
539
535
519
500
491
493
506
524
534
531
517
501
491
493
507
524
533
528
513
495
483
485
500
518
529
524
507
492
484
489
506
525
536
531
515
497
486
489
504
523
533
527
510
494
485
490
505
523
534
529
512
495
485
489
503
518
528
524
507
490
480
482
496
515
526
521
506
490
481
485
502
520
529
523
505
488
480
484
501
520
530
524
507
491
482
486
501
519
529
524
506
488
478
481
498
515
523
516
499
482
472
475
492
511
521
516
500
485
478
481
496
513
524
520
503
487
478
480
495
514
524
518
501
486
477
482
496
513
522
518
502
487
479
483
499
516
525
519
503
488
480
484
499
516
525
520
504
487
478
483
498
516
525
519
501
483
474
478
495
514
524
520
503
488
479
484
500
516
524
518
501
484
477
483
500
518
529
524
507
490
481
486
502
519
528
522
505
489
479
484
501
520
531
526
508
492
483
486
501
520
531
526
509
493
485
489
505
521
530
526
510
495
487
492
507
524
531
524
508
493
485
490
507
523
531
527
511
495
486
490
504
521
532
527
509
492
484
491
508
526
535
529
510
493
484
489
505
522
532
529
513
496
488
493
510
527
536
530
514
496
487
491
506
523
533
528
513
496
487
492
511
529
538
532
514
497
487
492
509
528
537
528
510
494
486
491
508
527
535
527
509
493
487
496
514
531
540
533
516
500
491
495
510
527
536
530
513
496
488
494
511
527
535
529
511
494
486
492
508
527
536
529
512
495
486
492
509
528
537
530
511
494
485
492
511
528
537
530
514
499
492
496
511
529
538
532
516
501
493
500
517
533
541
535
518
501
493
499
518
537
545
537
519
502
493
499
515
532
539
531
513
496
488
494
512
529
537
530
513
498
491
496
513
529
538
533
517
501
493
498
514
531
540
532
514
497
488
495
513
530
539
531
513
496
487
493
511
529
538
531
512
495
486
492
511
529
535
526
508
492
486
493
511
530
540
533
515
497
489
495
511
528
536
529
512
494
487
494
510
527
537
531
514
497
488
494
513
531
540
533
515
498
491
499
516
533
542
534
516
500
494
503
521
536
544
538
521
506
500
505
522
538
544
536
516
498
490
499
518
537
545
536
520
505
498
505
523
540
546
538
519
503
