550
507
473
468
494
537
571
576
548
504
470
463
489
531
565
571
544
501
467
463
491
534
567
572
546
503
470
465
493
535
567
570
541
496
462
457
484
527
559
563
535
492
460
457
486
530
562
564
536
493
461
457
480
507
524
526
513
496
485
483
493
506
516
517
507
492
481
479
487
501
513
515
505
492
482
480
487
500
511
513
503
489
478
475
484
498
508
510
502
489
478
477
486
500
511
513
504
491
481
478
486
499
510
511
502
487
477
476
484
497
508
510
500
485
473
471
481
496
507
508
499
486
476
475
483
496
506
506
498
487
477
478
487
498
506
508
500
490
483
482
490
500
508
508
500
490
481
481
488
498
505
507
501
492
485
484
490
499
507
508
501
491
483
483
490
500
509
510
504
495
488
488
496
504
513
515
509
501
495
494
499
508
517
520
515
506
498
496
502
512
522
525
519
508
500
498
505
514
522
524
518
508
498
495
501
511
520
522
516
507
499
496
503
513
521
523
517
507
498
495
500
509
518
520
515
504
495
492
497
508
518
520
515
505
496
493
499
510
520
522
518
509
499
498
504
515
526
529
525
515
505
502
507
516
524
527
522
511
502
499
505
514
523
524
517
506
497
495
502
511
520
522
516
508
499
498
505
516
525
526
520
510
500
499
506
516
524
525
518
508
499
498
504
513
522
524
518
506
498
498
506
516
522
522
514
504
496
496
504
515
524
524
517
505
496
496
503
513
522
522
515
506
499
500
508
519
527
526
518
507
498
498
506
516
524
523
514
503
496
498
507
519
526
523
515
505
498
499
507
518
525
524
514
503
495
497
506
517
525
524
516
505
496
496
505
515
521
521
513
503
496
498
507
518
527
527
519
507
499
502
511
521
527
526
517
505
497
498
509
521
528
527
519
509
503
505
513
523
529
527
517
507
501
505
514
525
531
528
519
507
499
501
512
522
529
526
516
505
497
499
508
519
524
520
510
500
494
496
504
515
523
519
511
500
495
499
509
520
527
523
513
501
494
497
507
518
525
523
514
505
500
504
513
523
528
524
513
502
497
500
509
520
525
523
514
503
498
500
510
522
528
526
516
506
500
503
512
522
527
523
511
500
496
498
508
517
523
519
510
500
495
499
509
519
525
520
509
498
493
498
509
521
527
521
509
497
492
497
508
519
524
521
512
502
497
503
514
524
527
522
511
501
497
503
513
522
526
520
511
502
497
503
514
524
526
520
509
499
496
503
514
525
529
524
513
502
498
503
513
523
526
520
507
496
493
501
512
523
527
521
510
501
498
504
515
525
529
522
512
501
499
505
515
524
527
522
512
502
499
504
514
523
524
519
509
501
500
506
516
526
529
523
512
501
496
502
513
523
525
518
507
498
497
504
514
523
525
519
508
497
494
500
510
520
524
517
506
495
494
502
513
524
525
517
507
496
495
502
513
522
524
519
508
499
497
504
515
524
524
515
503
493
493
501
513
523
523
515
504
495
493
499
510
520
521
513
502
494
494
501
512
522
523
516
505
495
495
503
515
525
527
519
508
498
498
507
518
528
528
519
506
497
496
504
516
526
526
516
502
491
491
500
513
520
519
510
499
491
490
499
513
524
525
517
506
498
500
508
519
526
525
515
503
496
496
505
517
527
525
514
500
492
494
504
516
524
523
513
501
494
496
506
518
526
526
516
503
495
496
505
517
525
524
516
505
499
500
510
521
527
524
514
501
494
497
507
518
525
523
512
500
492
495
505
517
524
523
514
502
496
498
508
520
528
526
515
503
497
500
511
523
530
527
518
506
498
500
509
519
525
521
510
497
489
492
502
514
523
521
511
500
495
498
507
519
526
523
512
500
493
494
504
517
525
521
510
497
492
495
504
516
523
520
509
496
490
494
505
517
521
517
507
496
491
495
505
517
523
519
508
496
492
496
508
519
522
517
506
495
491
496
509
521
527
522
513
502
497
503
514
525
530
527
516
506
501
506
518
530
536
531
519
508
503
508
521
534
540
536
527
517
512
517
528
538
542
536
525
515
511
518
529
540
544
539
528
517
513
519
530
540
543
537
527
516
511
517
529
540
544
537
526
516
513
519
530
540
545
540
529
518
513
518
528
538
541
535
522
511
507
514
526
536
539
532
520
510
507
513
524
533
535
528
515
504
500
506
517
526
529
522
509
498
493
500
511
522
526
519
507
497
494
501
513
523
525
519
507
496
494
503
515
525
526
519
507
497
494
501
512
522
523
515
503
494
494
501
513
522
524
516
505
495
491
498
510
523
525
516
502
492
491
500
512
522
523
516
504
495
494
501
512
522
522
514
502
492
491
499
510
518
519
510
499
491
491
499
510
519
519
510
499
490
487
495
508
518
519
510
498
488
488
496
507
516
517
509
496
487
487
496
506
514
512
502
491
482
483
493
505
515
517
508
496
488
488
497
508
519
518
509
498
491
492
501
513
521
519
508
497
488
488
497
509
519
519
510
499
490
490
499
511
520
519
509
499
492
494
504
516
524
522
512
500
493
494
504
517
525
523
512
498
488
489
499
512
521
520
509
497
490
492
502
514
522
520
509
497
490
492
503
516
523
520
510
497
489
490
499
511
518
515
505
495
489
493
503
515
522
519
507
495
489
492
502
514
522
519
509
498
491
493
503
515
522
518
507
495
489
492
503
514
520
517
506
495
489
492
502
515
522
518
508
496
489
493
504
516
523
520
509
497
491
494
505
517
522
518
507
495
488
493
505
518
523
517
506
495
490
495
505
516
521
516
504
493
488
493
504
517
523
519
508
497
492
497
509
520
524
517
506
496
492
497
507
517
520
515
503
491
486
494
506
518
523
519
508
497
492
497
509
521
525
519
508
498
496
503
514
524
528
521
509
498
493
498
507
518
523
517
507
496
491
496
508
519
524
517
505
494
491
496
508
519
523
517
506
496
493
500
512
523
526
519
507
496
493
500
511
522
525
516
504
494
492
500
512
522
525
519
507
496
493
499
510
520
521
513
501
490
488
497
511
522
524
515
503
492
491
500
512
522
524
516
504
495
493
499
510
521
524
516
505
495
491
498
509
519
521
514
502
492
491
499
512
524
525
517
504
493
490
497
510
521
524
516
502
491
489
497
510
521
521
512
500
491
490
499
511
521
522
516
504
494
494
502
514
524
525
516
504
495
494
502
513
523
522
513
501
492
493
502
514
525
525
515
503
496
496
504
517
526
525
517
504
494
494
503
516
526
525
514
502
494
496
505
518
526
526
515
502
493
493
502
515
524
523
514
502
495
496
505
516
526
526
516
503
496
497
505
519
527
525
515
504
496
497
506
518
527
525
515
504
496
497
505
517
525
525
515
503
495
497
506
518
526
524
514
502
495
497
507
519
525
523
511
498
491
494
504
518
526
522
510
498
491
493
503
515
523
519
509
498
490
492
503
516
525
521
511
499
491
494
504
516
525
523
513
501
494
497
507
520
527
524
514
501
494
498
508
520
528
524
513
501
494
497
507
518
525
522
511
498
492
495
505
517
524
520
509
498
493
497
507
520
526
524
515
503
497
501
511
523
529
525
513
501
497
502
512
525
531
527
515
501
495
498
509
521
526
522
510
498
491
496
507
521
527
523
512
501
496
500
511
521
526
521
510
500
495
500
511
523
527
521
508
497
493
499
509
520
525
520
509
497
493
499
510
521
526
521
508
495
490
497
509
520
524
519
508
497
493
499
511
522
524
518
506
495
491
497
508
521
527
521
509
498
494
500
512
524
527
521
509
499
495
502
513
523
528
522
509
497
493
499
511
522
525
519
509
500
498
505
516
527
530
522
509
497
494
500
510
521
523
515
503
492
489
496
507
518
520
513
502
492
489
496
508
520
524
518
506
496
493
498
507
517
521
515
504
494
493
500
512
524
527
521
510
498
495
501
514
525
527
519
507
497
495
502
513
524
527
521
509
499
497
503
514
524
526
518
505
494
494
503
517
527
529
521
510
498
496
503
514
524
525
518
507
497
496
503
516
524
524
514
502
493
494
501
514
523
525
518
506
497
496
504
515
524
524
515
504
495
496
505
519
527
526
517
504
496
496
505
516
523
523
514
503
494
495
503
515
524
525
516
502
494
495
505
518
526
523
512
499
491
494
505
518
526
525
516
503
494
495
505
517
524
522
512
501
493
495
505
517
525
524
514
502
495
498
508
519
526
523
514
502
494
497
508
519
525
522
511
500
493
495
506
519
526
524
513
500
494
497
507
519
527
524
514
503
495
498
508
520
527
525
514
501
494
497
508
520
527
524
513
500
492
495
504
517
525
521
510
498
492
495
505
517
524
522
513
503
495
497
508
521
529
526
515
502
497
500
510
522
528
525
514
501
496
500
510
521
527
523
512
500
494
497
507
518
525
520
510
501
497
502
512
522
526
520
509
497
490
494
505
517
524
521
511
499
493
498
508
520
525
520
509
498
494
499
510
521
526
522
511
499
493
497
507
518
525
521
510
499
494
499
509
521
526
521
510
500
495
500
512
524
529
524
512
500
496
502
515
527
530
524
510
498
495
500
511
522
525
517
504
494
491
498
512
524
527
521
509
499
495
500
511
523
527
520
508
497
494
501
513
523
526
520
509
498
496
503
515
526
527
519
506
494
490
498
513
526
529
521
508
497
495
502
514
524
525
518
507
497
495
502
514
525
527
519
506
495
492
500
514
524
526
519
507
496
494
502
513
522
523
516
505
495
493
501
512
523
525
517
505
496
495
503
515
525
524
515
502
494
494
503
516
525
526
516
505
495
494
502
514
525
526
518
505
495
495
501
513
523
525
515
502
492
493
501
514
525
525
516
503
494
492
500
512
522
522
514
504
496
497
508
520
528
527
518
504
494
494
503
516
525
524
514
501
493
495
506
519
527
526
516
502
494
496
507
520
528
527
517
505
497
497
507
520
528
525
515
503
495
497
508
521
529
527
517
505
496
496
506
518
525
523
514
502
494
495
506
518
526
525
516
503
495
496
505
518
527
526
516
504
496
498
509
522
530
527
516
502
494
496
505
516
524
522
512
499
491
493
505
518
526
523
510
497
490
494
506
518
526
523
513
501
493
496
507
520
527
524
514
503
496
500
512
522
528
525
514
502
495
501
512
524
531
527
516
505
498
501
510
521
527
524
512
500
494
498
509
521
527
523
511
499
493
497
508
518
524
520
509
498
492
497
509
521
525
519
508
497
493
497
509
521
526
522
509
497
492
496
507
519
526
521
509
497
493
499
510
521
525
519
508
497
492
498
509
521
524
518
508
498
495
500
511
522
527
524
512
500
495
501
512
523
527
520
507
496
492
499
511
522
526
519
507
495
490
495
507
520
525
520
508
498
494
501
512
522
526
520
509
499
496
503
513
523
526
520
509
499
495
503
515
525
527
520
508
497
494
500
513
524
527
520
509
498
494
499
510
521
524
516
505
496
495
502
514
525
527
520
508
496
494
502
513
524
526
518
506
497
496
503
514
525
527
520
508
497
496
504
516
525
526
519
507
496
494
503
515
525
527
519
507
496
494
502
515
524
525
517
504
495
493
501
512
522
524
516
505
495
493
501
514
525
526
518
507
499
499
506
518
526
526
517
506
496
495
503
514
523
523
515
504
495
493
499
509
520
522
515
502
492
493
502
514
522
522
513
501
493
494
503
515
524
524
514
502
493
495
504
515
525
527
517
504
495
496
505
518
527
527
518
504
495
495
506
519
529
528
520
508
500
500
509
520
527
526
517
505
497
498
507
519
528
527
517
504
496
498
507
519
529
527
517
505
497
499
507
519
527
526
516
504
494
495
505
519
527
524
514
502
494
497
508
521
528
524
514
501
493
495
505
517
523
518
507
497
490
493
504
516
524
521
509
496
490
495
505
516
523
520
509
498
492
495
506
516
522
518
507
497
492
495
505
516
522
520
509
496
489
491
502
515
523
521
511
499
493
496
506
520
527
524
512
499
493
496
506
517
523
520
510
499
493
497
507
518
525
522
510
499
493
497
508
519
525
521
511
501
497
501
512
522
528
524
513
501
494
500
511
522
527
522
511
500
495
500
510
520
525
521
510
499
493
497
508
520
527
522
510
499
495
501
512
524
529
523
509
497
491
496
507
518
523
519
508
497
494
499
510
522
525
518
507
497
493
499
510
522
528
522
509
497
493
498
510
523
528
522
511
500
496
502
513
524
528
522
509
498
493
497
508
519
523
518
508
498
494
501
513
525
529
522
508
496
492
498
510
522
526
521
509
498
494
499
512
525
529
521
508
497
494
502
515
528
531
523
511
500
499
505
517
527
528
521
510
500
498
506
518
528
531
524
513
503
502
510
524
537
540
533
522
512
509
516
528
540
543
536
523
512
508
515
526
536
539
531
519
510
509
517
529
539
540
532
520
508
506
513
525
535
537
530
519
508
505
513
526
535
536
527
515
504
504
512
523
532
532
523
510
499
498
505
518
528
528
520
507
496
496
506
519
528
527
517
505
497
498
508
520
530
531
522
510
499
498
506
517
526
526
519
507
498
497
506
517
526
526
517
504
495
494
502
514
524
524
516
505
495
494
502
514
523
523
513
500
491
492
500
513
523
521
510
499
491
491
499
512
522
521
513
501
492
492
501
512
520
518
509
498
490
491
500
513
521
520
511
500
492
494
504
518
527
525
516
503
495
496
505
517
524
523
514
501
494
496
507
520
526
523
514
502
495
496
504
515
522
520
510
498
491
492
501
512
519
517
508
497
491
493
503
515
523
520
509
496
488
491
501
512
519
517
506
494
488
492
504
516
524
522
514
503
496
499
508
520
527
523
512
500
491
492
501
514
522
520
509
497
490
493
502
513
520
517
506
494
487
491
501
513
518
512
501
489
483
488
499
512
518
516
506
494
487
491
500
512
517
512
501
489
484
488
498
511
517
512
502
492
486
490
502
514
519
514
503
491
485
488
498
509
515
510
501
491
486
491
502
514
518
513
502
491
486
491
501
512
516
508
497
488
485
490
501
512
517
513
502
491
487
492
503
514
519
514
503
493
488
493
504
516
521
516
504
493
490
495
506
517
521
514
502
491
487
493
505
517
520
514
502
490
487
494
505
517
522
515
504
493
489
496
508
519
521
514
503
493
491
498
510
521
524
517
506
495
492
499
512
523
525
518
506
494
492
499
512
524
527
520
506
495
492
499
512
523
524
517
505
495
492
500
512
523
526
518
505
494
493
499
510
521
522
514
502
493
492
499
511
522
523
515
503
494
493
501
514
524
525
517
506
495
494
502
515
526
527
519
506
496
494
501
512
522
523
515
504
495
494
502
513
522
521
513
502
494
495
504
516
524
522
514
503
492
491
499
510
519
519
511
501
493
493
502
515
525
524
516
504
495
494
502
514
524
525
517
503
492
490
500
514
525
525
516
504
495
496
506
518
526
524
513
501
492
492
500
511
520
518
509
497
490
490
499
512
520
519
508
496
488
489
497
509
518
517
507
495
487
488
496
509
518
518
506
494
486
487
497
510
519
519
510
498
487
489
500
512
521
521
513
502
493
495
504
516
525
522
512
499
491
493
504
516
525
524
516
505
496
497
506
517
524
522
512
499
492
495
506
520
527
525
514
502
494
495
505
518
526
521
510
497
491
495
506
518
524
521
510
497
489
492
503
516
525
524
516
505
497
499
508
521
528
524
514
502
496
499
509
521
527
524
515
504
498
501
512
524
530
528
518
506
498
503
513
525
532
529
518
506
498
500
510
523
530
527
517
505
500
504
514
525
530
526
515
502
495
499
510
522
529
526
515
501
496
501
514
527
532
527
517
507
502
505
516
529
534
529
518
506
500
506
519
531
536
530
519
506
500
504
515
526
531
527
518
506
501
506
517
529
533
528
516
502
497
502
515
527
531
525
512
501
497
504
515
526
531
525
513
501
497
502
516
529
533
526
514
502
497
501
511
522
526
519
506
494
490
497
509
520
522
514
502
492
490
497
509
521
525
518
506
495
491
497
508
518
522
518
508
499
496
499
506
514
516
512
506
498
494
497
504
513
516
512
506
499
497
500
507
514
515
511
504
497
494
498
505
513
515
513
505
496
493
495
498
503
504
503
498
491
486
484
485
487
487
485
482
475
467
461
456
457
458
457
452
441
428
416
405
401
399
399
395
385
368
348
331
325
324
327
326
315
297
275
256
248
250
256
258
246
224
197
171
158
159
167
172
161
137
106
77
64
66
77
84
75
52
28
15
10
24
55
83
94
88
73
65
77
108
147
178
190
181
161
148
154
180
216
243
248
231
202
179
178
197
227
248
246
221
185
156
150
168
197
217
214
188
150
122
120
145
180
206
206
181
147
124
128
155
194
224
228
207
175
150
152
178
217
245
247
225
191
168
172
202
243
270
270
244
208
182
184
210
247
271
266
235
194
166
167
193
229
254
253
226
188
163
168
199
240
270
273
254
227
213
228
270
317
352
360
344
318
305
321
362
409
444
451
433
408
397
415
456
505
540
548
533
510
500
518
560
608
640
645
628
604
595
611
648
690
715
713
689
661
648
661
694
731
753
749
722
690
673
683
711
745
765
760
736
705
691
702
733
767
784
776
747
717
701
709
736
766
780
767
736
703
683
687
708
732
740
723
690
653
633
637
660
686
697
685
657
626
612
621
649
680
695
686
657
629
617
630
660
692
707
700
675
650
640
653
681
711
724
715
691
667
659
674
703
732
746
738
713
688
679
692
719
745
754
743
719
695
686
698
724
749
757
746
721
697
689
702
728
753
762
750
727
704
697
709
734
759
768
755
729
705
699
711
737
760
767
756
732
709
701
714
738
760
767
755
731
708
701
713
737
758
763
749
725
705
704
721
751
780
795
792
776
762
764
783
811
834
844
837
819
805
808
827
854
876
880
870
851
831
827
839
859
873
870
850
820
793
781
786
801
813
807
785
754
727
712
712
721
728
720
697
668
645
637
642
655
661
652
630
600
574
564
571
587
599
600
587
566
548
543
551
568
578
568
546
518
495
487
494
509
524
528
523
513
509
518
541
573
601
614
612
600
590
594
612
635
652
654
642
624
612
613
629
651
666
666
653
638
629
635
653
676
694
698
687
667
652
651
664
686
701
701
687
667
651
648
659
675
686
683
667
643
624
621
632
651
664
660
641
614
594
590
600
617
627
624
607
584
565
560
568
585
595
591
573
546
525
520
533
553
567
564
545
517
496
493
506
527
541
538
520
494
475
473
488
512
527
526
507
481
463
463
478
499
515
512
493
467
448
448
464
488
504
500
478
450
432
432
448
471
485
481
462
438
424
428
447
469
483
481
464
439
424
425
442
464
479
477
459
436
422
424
440
461
474
470
451
426
409
410
425
444
453
446
426
402
388
389
405
425
435
428
406
378
362
364
381
403
415
407
384
357
341
343
359
379
388
378
354
325
307
309
326
346
356
350
328
303
290
297
319
346
360
356
337
315
305
316
340
367
381
375
354
329
318
329
356
385
399
395
374
350
340
350
378
408
422
416
398
376
368
382
411
441
457
453
434
415
411
428
459
492
509
506
489
471
467
483
513
544
562
560
543
522
516
531
560
589
602
595
574
551
543
556
583
611
623
614
589
566
558
571
595
618
625
616
594
572
564
574
597
619
626
613
587
562
553
565
588
610
617
605
580
555
545
554
574
594
598
583
557
532
524
539
567
593
604
596
575
554
548
560
585
606
610
595
571
549
546
561
588
609
613
600
576
555
550
561
586
607
613
600
579
563
565
584
614
642
655
653
643
639
654
685
723
755
769
765
752
742
747
767
796
821
831
827
814
809
824
856
900
941
971
987
995
1007
1023
1023
1023
1023
1023
1023
1023
1023
1023
1023
1023
1023
1023
1023
1023
1023
1023
1023
1023
1023
1023
1023
1023
1023
1023
1023
1023
1023
1023
1023
1023
1023
1023
1023
1023
1023
1023
1023
1023
1023
1023
1023
1023
1023
1023
1023
1023
1023
1023
1023
1023
1023
1023
1023
1023
1023
1023
1023
1023
1023
1023
1023
1023
1023
1023
1023
1023
1023
1023
1023
1023
1023
1023
1023
1023
1023
1023
1023
1023
1023
1023
1023
1023
1023
1023
1023
1023
1023
1023
1023
1023
1023
1023
1023
1023
1023
1023
1023
1023
1023
1023
1023
1023
1021
1008
1005
1005
996
971
935
897
866
849
844
842
833
811
778
741
711
692
685
682
673
653
622
589
564
553
555
562
563
550
527
500
482
475
477
481
478
461
435
407
388
383
389
398
399
386
363
340
326
323
329
338
340
330
313
296
292
302
324
354
377
389
391
391
396
409
429
449
464
471
471
470
474
482
493
502
505
501
493
483
478
480
485
489
487
480
471
462
458
461
466
472
475
471
465
461
461
465
470
474
473
467
458
450
446
448
451
455
453
448
441
435
434
438
444
449
449
444
437
429
425
425
427
430
428
421
414
409
408
409
413
417
417
413
407
401
399
399
399
396
389
380
371
362
354
346
338
329
319
308
297
287
280
274
269
264
255
244
234
225
220
216
213
208
201
193
185
178
177
177
177
175
172
167
161
157
157
157
158
158
155
150
144
140
141
143
144
144
141
137
132
130
131
133
134
135
131
126
121
117
118
119
121
122
120
116
112
109
109
111
113
113
111
108
106
105
107
109
111
111
109
106
104
103
106
110
112
113
112
109
107
108
111
114
116
116
113
110
107
106
110
113
118
120
118
117
117
118
120
124
126
126
123
121
119
119
122
126
129
130
129
127
125
126
129
134
138
140
138
135
132
131
134
137
140
142
142
141
141
142
145
149
152
155
154
153
155
156
159
162
164
165
164
163
163
162
164
167
171
174
174
175
175
176
180
184
187
188
185
184
184
186
190
194
197
197
195
196
197
198
201
204
208
209
207
205
204
205
209
212
216
216
214
213
213
214
217
220
223
224
223
222
222
224
230
235
238
238
236
234
234
236
240
243
247
248
246
244
244
245
249
252
256
258
257
256
254
256
260
263
267
267
266
265
265
267
272
275
277
277
275
274
274
276
281
285
288
287
285
284
284
286
290
293
295
296
296
296
295
297
300
304
306
305
303
301
301
303
307
311
313
312
310
309
309
312
315
318
319
319
317
316
315
317
322
325
326
325
324
322
323
326
329
332
335
336
335
333
331
333
336
339
341
340
338
336
336
338
341
344
346
346
345
344
344
346
350
355
358
358
356
355
357
360
363
365
366
364
361
360
360
364
369
374
375
373
369
366
366
368
372
375
378
377
375
373
373
376
380
382
384
383
381
380
380
382
386
388
389
387
385
384
384
386
390
393
394
393
391
390
390
394
398
400
402
400
398
397
396
398
401
404
406
404
400
398
398
402
407
410
411
409
406
405
407
411
414
418
420
418
416
415
415
416
418
419
420
418
414
413
414
418
422
425
428
427
425
423
423
426
430
433
433
429
426
424
424
426
430
433
434
432
430
429
429
432
436
438
439
437
434
432
432
435
438
440
441
438
435
433
433
437
441
444
445
443
440
438
438
441
444
446
447
446
444
442
444
448
451
452
453
450
447
446
447
450
452
454
455
454
451
452
453
456
459
462
463
461
458
456
457
461
464
468
469
467
464
463
464
467
470
472
472
468
464
464
466
469
471
473
473
471
468
467
467
471
473
474
474
472
469
467
468
472
474
477
478
476
472
471
472
476
479
480
481
478
474
472
475
479
482
484
483
479
478
477
479
484
486
487
487
485
482
480
481
483
485
485
484
482
480
478
480
485
488
490
489
486
483
481
483
486
489
491
492
490
488
487
490
494
496
498
497
493
490
488
489
493
495
496
495
492
490
488
490
494
497
498
497
495
493
492
493
495
497
498
499
499
497
495
495
497
499
500
499
497
495
495
495
497
498
498
496
495
495
495
497
500
502
504
504
500
497
496
497
501
503
503
501
499
499
498
500
504
507
509
508
505
503
502
504
506
508
510
509
508
507
506
507
509
509
511
510
508
506
505
507
510
513
514
512
509
508
507
508
512
515
516
513
510
509
509
510
513
515
516
515
512
509
509
511
514
517
519
518
515
513
512
515
518
519
520
517
515
513
511
512
515
517
518
516
514
512
512
515
518
520
521
519
516
514
514
515
518
521
523
523
520
518
516
517
520
523
524
520
518
517
518
521
524
526
527
523
519
517
517
521
525
525
524
522
520
518
518
523
527
528
528
526
525
522
522
524
527
529
529
528
525
523
523
526
528
529
529
526
523
520
519
522
527
529
528
525
522
521
521
523
525
528
528
526
524
522
520
523
526
528
529
525
523
521
521
524
527
528
529
528
526
524
524
526
527
528
527
525
523
521
521
524
527
530
530
528
525
524
523
523
525
528
528
526
523
521
520
524
528
530
531
529
529
527
528
530
531
533
534
531
530
530
529
530
532
532
531
529
528
526
526
528
531
534
534
530
528
526
526
527
528
530
530
529
528
528
528
530
531
531
530
529
529
528
528
531
533
535
534
532
529
527
528
530
533
535
535
531
528
525
525
526
528
529
529
527
526
525
525
527
530
532
531
528
526
524
525
527
529
530
529
526
525
526
528
530
533
535
534
530
527
525
525
527
529
532
533
530
529
528
529
532
533
534
533
531
529
528
529
531
532
532
530
528
528
527
529
532
534
536
534
531
529
528
529
533
536
538
536
533
532
531
532
535
536
536
533
529
527
526
528
530
532
533
531
529
528
528
529
531
533
534
533
530
528
528
530
533
535
535
532
530
529
529
532
535
535
535
533
529
527
525
528
531
533
534
533
531
530
530
532
535
536
535
535
531
528
527
529
533
537
537
533
529
527
527
529
531
532
534
533
530
529
529
531
532
533
534
533
531
529
528
528
530
531
531
530
527
527
527
529
531
532
534
532
531
530
529
530
532
533
535
533
531
530
529
531
532
533
533
530
528
526
526
527
528
531
532
530
528
526
526
529
530
532
533
532
530
529
529
531
532
533
533
530
527
525
525
528
531
533
532
530
528
528
527
531
534
535
534
532
529
529
529
530
532
534
534
532
530
529
530
534
536
537
536
533
532
531
530
533
535
536
535
531
529
530
531
533
536
537
536
534
532
531
531
534
535
536
535
532
531
528
528
530
531
532
532
529
528
527
529
532
531
531
531
529
528
526
527
530
531
531
531
530
528
526
527
529
530
532
531
527
524
521
522
526
530
531
529
526
524
524
525
528
529
531
530
526
525
524
525
528
529
531
531
529
527
526
526
528
530
531
530
528
526
525
525
527
529
530
529
527
526
524
524
526
527
528
527
523
521
522
523
526
529
531
530
528
526
525
526
527
528
530
530
529
527
525
525
528
531
533
531
526
525
525
525
526
528
531
530
528
526
525
525
528
530
531
528
526
524
525
527
529
530
529
528
526
524
523
523
526
529
529
527
526
525
525
526
528
529
529
527
525
524
523
525
529
531
532
531
528
527
526
526
528
529
530
528
525
524
524
525
526
526
527
527
527
527
526
527
528
529
530
529
527
526
524
525
526
528
530
528
525
525
525
528
531
533
534
531
528
527
527
530
534
537
538
536
532
529
527
529
531
533
534
531
527
524
521
524
528
529
529
527
523
520
519
522
526
527
526
524
523
523
521
524
526
527
526
525
524
523
524
526
529
530
530
528
524
521
522
524
525
526
527
525
523
522
521
522
525
529
531
529
526
523
523
526
528
529
529
526
521
518
517
520
523
525
525
524
523
522
522
524
527
528
527
525
522
521
521
523
526
528
529
527
524
523
524
527
529
530
530
526
524
523
523
525
527
527
526
524
523
522
523
525
525
524
524
520
519
518
518
522
525
525
524
521
520
520
521
525
527
527
526
524
521
519
518
520
521
523
522
520
517
517
519
521
523
523
524
522
519
519
519
522
523
525
526
524
523
522
522
524
526
526
525
522
521
520
521
524
526
527
527
522
519
517
518
521
524
526
525
522
519
518
519
522
523
524
524
521
518
516
517
521
524
525
524
522
521
521
521
523
525
525
525
522
520
520
521
523
523
524
523
521
520
520
522
525
527
528
526
523
521
520
521
524
526
526
525
522
521
521
523
524
525
525
524
522
521
520
520
522
524
525
524
522
520
518
519
521
523
524
523
521
520
520
522
524
525
524
523
521
520
519
520
522
524
526
523
521
520
519
521
523
523
523
523
519
517
517
519
521
522
522
520
518
517
517
519
523
524
525
522
518
515
515
518
521
524
525
524
523
521
520
522
524
525
525
521
518
518
518
519
521
523
525
523
519
518
517
518
520
522
523
521
518
518
518
520
523
524
524
521
518
515
515
518
521
522
522
519
516
515
515
518
522
523
523
522
520
519
519
520
522
522
521
518
518
517
518
519
520
522
521
518
515
514
514
517
520
522
521
518
516
515
515
516
518
520
520
520
518
517
516
518
521
522
522
519
517
516
517
519
522
522
520
517
516
514
514
516
519
521
520
517
514
512
512
516
519
521
520
516
512
510
509
514
517
518
518
516
515
513
513
516
517
518
518
516
515
514
514
518
521
523
524
521
518
517
515
518
521
521
520
518
517
516
516
518
519
520
520
518
516
515
515
518
521
523
523
520
519
518
516
518
519
519
519
516
513
513
514
516
518
519
519
517
513
512
513
515
517
517
517
515
513
513
513
515
516
517
518
517
516
516
516
519
521
521
520
518
517
516
514
517
519
520
518
515
514
515
515
517
519
520
519
516
513
512
512
515
518
520
520
518
517
516
518
520
520
519
517
515
513
513
516
519
520
520
519
516
516
517
518
521
521
521
522
520
518
517
517
521
523
524
522
519
517
517
518
519
521
522
521
518
516
517
518
519
520
521
519
518
517
516
517
519
521
521
521
519
518
519
521
524
526
525
523
520
516
513
515
519
521
521
518
515
512
512
513
516
518
519
517
515
513
513
515
517
518
517
515
513
513
512
513
516
518
518
517
516
517
518
519
522
524
525
524
521
518
516
517
519
521
522
521
518
516
516
518
519
521
521
520
518
516
515
515
517
518
519
519
517
515
513
513
513
513
512
509
507
506
504
503
503
502
501
499
495
491
487
487
487
485
481
477
472
466
461
459
459
458
455
450
443
435
427
421
419
417
414
407
396
384
371
361
356
355
357
353
344
328
310
298
293
294
296
292
280
261
241
225
219
224
232
233
224
208
190
181
184
198
213
220
215
202
187
181
190
208
230
241
237
223
208
204
212
230
250
260
255
237
219
212
223
245
268
277
270
251
233
227
239
266
292
303
297
275
254
247
262
291
318
328
320
298
276
271
286
315
344
357
348
323
297
289
304
336
368
380
367
339
312
305
322
353
384
395
381
350
321
313
331
366
400
412
399
367
339
332
353
392
427
438
423
390
361
355
377
415
449
459
441
406
375
369
392
432
466
476
456
419
387
380
402
439
470
477
457
420
388
381
403
441
474
480
458
419
388
382
405
445
479
486
467
430
401
400
429
472
506
513
493
458
432
434
465
510
547
555
536
501
474
475
503
547
582
590
572
541
518
520
547
587
618
625
606
573
547
546
571
608
635
638
618
586
561
561
585
619
644
646
626
595
572
571
592
623
645
645
622
589
565
562
579
604
620
613
586
549
520
513
528
552
568
562
535
495
467
461
479
509
533
532
503
463
437
446
493
565
633
673
694
1023
1023
1023
1023
1023
1023
1023
1023
1023
1023
1023
1023
1023
1023
1023
1023
1023
1023
1023
632
333
178
96
52
29
16
10
6
4
3
2
2
1
1
1
1
1
1
1
1
1
1
1
1
1
1
1
1
1
1
1
1
1
1
1
1
1
1
1
1
1
1
1
1
1
1
1
1
1
1
1
1
1
1
1
1
1
1
1
1
1
1
0
1
28
80
181
317
392
287
146
75
39
20
11
6
4
2
1
1
1
1
1
1
1
1
1
1
1
1
77
221
610
1023
838
550
377
338
409
694
1023
1023
1023
749
391
207
111
440
1023
1023
1023
1023
530
279
149
677
1023
1023
1023
1023
634
333
184
824
1023
1023
1023
1023
695
365
265
937
1023
1023
1023
1023
769
404
459
1023
1023
1023
1023
1023
914
477
746
1023
1023
1023
1023
1023
1023
554
978
1023
1023
1023
1023
1023
1023
651
1023
1023
1023
1023
1023
1023
1023
720
1023
1023
1023
1023
1023
1023
1023
751
1023
1023
1023
1023
1023
1023
1023
773
1023
1023
1023
1023
1023
1023
1023
765
1023
1023
1023
1023
1023
1023
1023
714
1023
1023
1023
1023
1023
1023
970
559
1023
1023
1023
1023
1023
1023
793
416
740
1023
1023
1023
1023
1023
561
297
194
864
1023
1023
1023
626
328
175
94
52
28
16
10
6
4
3
2
2
1
1
1
1
1
1
1
1
1
1
1
1
1
1
1
1
1
1
1
1
1
1
1
1
1
1
1
1
1
1
1
1
1
1
1
1
1
1
1
1
1
1
0
0
1
1
1
1
1
1
1
1
1
0
1
1
1
1
0
1
1
1
1
1
1
0
1
1
1
1
1
1
1
1
1
1
1
1
1
1
1
1
1
1
1
0
1
1
1
0
1
1
1
1
1
1
1
1
0
1
0
1
0
1
0
0
1
1
1
1
1
0
0
1
1
1
0
1
0
0
1
0
1
1
1
1
1
1
1
1
1
1
1
0
1
1
1
1
1
1
1
1
0
0
1
1
1
14
112
182
178
151
177
299
499
723
887
946
914
859
868
985
1023
1023
1023
1023
1023
1023
1023
1023
1023
1023
1023
1023
1023
1023
1023
1023
1023
1023
1023
1023
1023
1023
1023
1023
1023
1023
1023
1023
1023
1023
1023
1023
1023
1023
1023
1023
1023
1023
1023
1023
1023
1023
1023
1023
1023
1023
1023
1023
1023
1023
1023
1023
1023
1023
1023
1023
1023
1023
1023
1023
1023
1023
1023
1023
1023
1023
1023
1023
1023
1023
1023
1023
1023
1023
1023
1023
1023
1023
1023
1023
1023
1023
1023
1023
1023
1023
1023
1023
1023
1023
1023
1023
1023
1023
1023
1023
1023
1023
1023
1023
1023
1023
1023
1023
1023
1023
1023
1023
1023
1023
1023
1023
631
336
180
98
379
1015
1023
1023
610
320
170
92
543
1023
1023
1023
737
386
205
110
717
1023
1023
1023
838
438
231
174
864
1023
1023
1023
974
506
268
337
997
1023
1023
1023
1023
570
301
530
1023
1023
1023
1023
1023
642
338
730
1023
1023
1023
1023
1023
719
390
924
1023
1023
1023
1023
1023
795
550
1023
1023
1023
1023
1023
1023
849
763
1023
1023
1023
1023
1023
1023
868
885
1023
1023
1023
1023
1023
1023
869
942
1023
1023
1023
1023
1023
1023
870
1007
1023
1023
1023
1023
1023
1023
872
1023
1023
1023
1023
1023
1023
1023
840
1023
1023
1023
1023
1023
1023
1023
812
1023
1023
1023
1023
1023
1023
1023
808
1023
1023
1023
1023
1023
1023
1023
795
1023
1023
1023
1023
1023
1023
1023
772
1023
1023
1023
1023
1023
1023
1023
740
1023
1023
1023
1023
1023
1023
1023
702
995
1023
1023
1023
1023
1023
1023
668
933
1023
1023
1023
1023
1023
1023
637
878
1023
1023
1023
1023
1023
1023
606
809
1023
1023
1023
1023
1023
1023
571
713
1023
1023
1023
1023
1023
1016
528
552
1023
1023
1023
1023
1023
892
467
333
954
1023
1023
1023
1023
747
393
211
748
1023
1023
1023
1023
613
324
173
583
1023
1023
1023
994
514
272
146
441
1023
1023
1023
848
441
234
125
312
980
1023
1023
744
388
206
111
230
927
1023
1023
671
350
186
100
193
899
1023
1023
628
328
174
93
199
906
1023
1023
624
326
173
93
234
932
1023
1023
634
331
176
94
270
956
1023
1023
637
333
177
94
295
972
1023
1023
627
328
174
93
305
978
1023
1023
610
319
170
91
322
987
1023
1023
603
315
168
90
349
1002
1023
1023
595
311
166
89
349
1002
1023
1023
551
289
154
82
247
943
1023
878
453
238
127
68
140
861
1023
705
365
192
102
55
89
810
1023
588
305
161
85
46
62
777
996
502
261
138
73
39
38
732
805
406
211
111
59
32
19
673
621
314
164
86
46
24
14
634
503
256
133
70
37
20
11
624
464
236
123
64
34
18
14
686
539
273
143
75
39
21
41
762
669
338
176
93
49
26
103
842
829
419
218
115
61
33
214
928
1023
543
282
149
79
43
415
1023
1023
760
394
207
111
59
637
1023
1023
1017
523
275
147
117
817
1023
1023
1023
624
327
174
256
946
1023
1023
1023
706
369
196
439
1023
1023
1023
1023
802
419
223
634
1023
1023
1023
1023
942
490
269
849
1023
1023
1023
1023
1023
571
461
1023
1023
1023
1023
1023
1023
655
808
1023
1023
1023
1023
1023
1023
750
1023
1023
1023
1023
1023
1023
1023
822
1023
1023
1023
1023
1023
1023
1023
834
1023
1023
1023
1023
1023
1023
1023
817
1023
1023
1023
1023
1023
1023
1023
811
1023
1023
1023
1023
1023
1023
1023
826
1023
1023
1023
1023
1023
1023
1023
833
1023
1023
1023
1023
1023
1023
1023
816
1023
1023
1023
1023
1023
1023
1023
762
1023
1023
1023
1023
1023
1023
1023
689
1023
1023
1023
1023
1023
1023
1023
607
1023
1023
1023
1023
1023
1023
1023
544
964
1023
1023
1023
1023
1023
963
501
871
1023
1023
1023
1023
1023
899
470
779
1023
1023
1023
1023
1023
831
435
647
1023
1023
1023
1023
1023
754
396
464
1023
1023
1023
1023
1023
669
352
299
943
1023
1023
1023
1023
583
308
195
824
1023
1023
1023
949
493
261
142
703
1023
1023
1023
787
412
218
117
556
1023
1023
1023
654
343
182
98
361
1006
1023
1023
532
280
149
80
225
923
1023
858
442
232
124
67
187
895
1023
811
418
220
117
63
252
943
1023
905
465
245
130
70
414
1023
1023
1023
569
299
159
85
647
1023
1023
1023
699
366
194
154
831
1023
1023
1023
874
456
241
348
999
1023
1023
1023
1023
562
297
691
1023
1023
1023
1023
1023
655
384
940
1023
1023
1023
1023
1023
697
494
1023
1023
1023
1023
1023
1023
707
559
1023
1023
1023
1023
1023
1023
700
587
1023
1023
1023
1023
1023
1023
685
588
1023
1023
1023
1023
1023
1023
666
570
1023
1023
1023
1023
1023
1023
645
555
1023
1023
1023
1023
1023
1023
627
546
1023
1023
1023
1023
1023
1023
610
538
1023
1023
1023
1023
1023
1023
593
532
1023
1023
1023
1023
1023
1023
578
524
1023
1023
1023
1023
1023
1023
562
512
1023
1023
1023
1023
1023
1023
551
520
1023
1023
1023
1023
1023
1023
542
539
1023
1023
1023
1023
1023
1023
534
554
1023
1023
1023
1023
1023
1009
525
563
1023
1023
1023
1023
1023
990
515
575
1023
1023
1023
1023
1023
971
506
587
1023
1023
1023
1023
1023
949
495
579
1023
1023
1023
1023
1023
917
479
555
1023
1023
1023
1023
1023
885
463
541
1023
1023
1023
1023
1023
867
454
541
1023
1023
1023
1023
1023
849
445
550
1023
1023
1023
1023
1023
838
439
571
1023
1023
1023
1023
1023
826
434
597
1023
1023
1023
1023
1023
819
430
629
1023
1023
1023
1023
1023
809
425
664
1023
1023
1023
1023
1023
799
420
685
1023
1023
1023
1023
1023
785
413
698
1023
1023
1023
1023
1023
768
404
684
1023
1023
1023
1023
1023
727
383
599
1023
1023
1023
1023
1023
663
350
419
1023
1023
1023
1023
1023
536
284
175
758
1023
1023
1023
698
365
195
105
263
936
1023
679
352
186
100
54
30
17
10
6
4
3
2
2
2
1
1
1
1
1
1
1
1
1
1
1
1
1
1
1
1
1
1
1
1
1
1
1
1
1
1
1
1
1
1
1
1
0
1
1
1
1
1
1
1
0
1
1
1
1
1
1
1
1
1
1
1
1
1
1
213
923
1023
1023
608
318
169
670
1023
1023
1023
1023
1023
810
990
1023
1023
1023
1023
1023
1023
754
754
1023
1023
1023
1023
1023
1023
693
529
1023
1023
1023
1023
1023
1023
610
361
937
1023
1023
1023
1023
1023
567
329
906
1023
1023
1023
1023
1023
561
380
982
1023
1023
1023
1023
1023
608
632
1023
1023
1023
1023
1023
1023
716
1023
1023
1023
1023
1023
1023
1023
759
1023
1023
1023
1023
1023
1023
1023
693
1023
1023
1023
1023
1023
1023
1023
643
921
1023
1023
1023
1023
1023
1023
599
801
1023
1023
1023
1023
1023
1023
553
645
1023
1023
1023
1023
1023
953
496
415
1021
1023
1023
1023
1023
803
421
232
789
1023
1023
1023
1023
646
340
182
563
1023
1023
1023
996
516
273
146
392
1023
1023
1023
855
446
236
127
329
987
1023
1023
824
430
227
122
406
1023
1023
1023
917
476
252
135
610
1023
1023
1023
1023
616
324
240
886
1023
1023
1023
1023
815
427
695
1023
1023
1023
1023
1023
940
507
961
1023
1023
1023
1023
1023
926
496
944
1023
1023
1023
1023
1023
863
452
831
1023
1023
1023
1023
1023
780
409
619
1023
1023
1023
1023
1023
656
346
294
935
1023
1023
1023
980
509
270
147
705
1023
1023
1023
737
386
205
111
487
1023
1023
1023
595
313
166
90
346
997
1023
1023
540
284
151
81
397
1023
1023
1023
588
309
164
88
618
1023
1023
1023
751
393
208
181
853
1023
1023
1023
1023
538
284
509
1023
1023
1023
1023
1023
669
370
889
1023
1023
1023
1023
1023
731
481
1023
1023
1023
1023
1023
1023
712
450
1000
1023
1023
1023
1023
1023
657
363
875
1023
1023
1023
1023
1023
577
305
619
1023
1023
1023
1023
906
473
251
340
987
1023
1023
1023
720
378
201
181
850
1023
1023
1023
585
308
164
106
739
1023
1023
994
512
270
144
85
699
1023
1023
970
500
264
141
114
784
1023
1023
1023
570
300
160
253
934
1023
1023
1023
730
383
204
547
1023
1023
1023
1023
935
487
289
868
1023
1023
1023
1023
1023
559
492
1023
1023
1023
1023
1023
1023
576
563
1023
1023
1023
1023
1023
1023
549
476
1023
1023
1023
1023
1023
962
501
333
928
1023
1023
1023
1023
828
434
231
723
1023
1023
1023
1023
687
361
192
518
1023
1023
1023
1023
562
297
159
349
998
1023
1023
906
469
248
133
238
923
1023
1023
800
416
221
118
205
898
1023
1023
786
409
217
116
285
960
1023
1023
885
459
243
130
484
1023
1023
1023
1023
575
303
167
737
1023
1023
1023
1023
721
379
337
969
1023
1023
1023
1023
827
434
595
1023
1023
1023
1023
1023
860
451
694
1023
1023
1023
1023
1023
831
436
642
1023
1023
1023
1023
1023
767
403
476
1023
1023
1023
1023
1023
672
354
287
922
1023
1023
1023
1023
567
300
176
768
1023
1023
1023
897
466
247
133
624
1023
1023
1023
744
389
207
111
495
1023
1023
1023
647
339
180
97
408
1023
1023
1023
593
311
166
89
382
1018
1023
1023
561
294
157
84
283
960
1023
805
416
219
117
63
34
19
11
7
4
3
2
2
1
1
1
1
1
1
1
1
1
1
1
1
1
1
1
1
1
1
1
1
1
1
1
1
1
1
1
1
1
1
1
1
1
1
1
1
1
1
1
1
1
1
1
1
1
1
0
1
1
0
1
0
1
1
1
1
1
1
1
0
1
1
0
1
1
1
1
1
1
1
1
1
1
219
111
55
28
14
8
4
188
909
1022
516
269
142
76
41
551
1023
1023
935
481
254
136
125
833
1023
1023
1023
661
347
185
400
1023
1023
1023
1023
810
423
225
641
1023
1023
1023
1023
945
491
262
806
1023
1023
1023
1023
1023
530
308
908
1023
1023
1023
1023
1023
539
330
940
1023
1023
1023
1023
1010
524
317
927
1023
1023
1023
1023
951
495
285
886
1023
1023
1023
1023
885
462
253
835
1023
1023
1023
1023
824
431
231
794
1023
1023
1023
1023
774
405
216
768
1023
1023
1023
1023
739
388
207
759
1023
1023
1023
1023
712
374
200
769
1023
1023
1023
1023
699
367
202
797
1023
1023
1023
1023
700
367
214
837
1023
1023
1023
1023
717
376
250
895
1023
1023
1023
1023
737
387
303
952
1023
1023
1023
1023
753
395
359
999
1023
1023
1023
1023
757
398
401
1023
1023
1023
1023
1023
751
394
424
1023
1023
1023
1023
1023
734
386
427
1023
1023
1023
1023
1023
711
374
416
1023
1023
1023
1023
1023
684
360
399
1023
1023
1023
1023
1023
658
346
379
1015
1023
1023
1023
1023
631
332
359
1003
1023
1023
1023
1023
608
321
348
995
1023
1023
1023
1023
587
310
344
994
1023
1023
1023
1023
573
303
353
1000
1023
1023
1023
1023
562
297
369
1011
1023
1023
1023
1023
555
293
393
1023
1023
1023
1023
1023
548
290
418
1023
1023
1023
1023
1023
541
286
443
1023
1023
1023
1023
1023
531
281
459
1023
1023
1023
1023
1003
521
276
469
1023
1023
1023
1023
978
508
269
474
1023
1023
1023
1023
950
494
262
476
1023
1023
1023
1023
922
481
255
475
1023
1023
1023
1023
892
466
247
473
1023
1023
1023
1023
866
453
240
475
1023
1023
1023
1023
845
442
234
491
1023
1023
1023
1023
826
433
229
498
1023
1023
1023
1023
811
425
225
518
1023
1023
1023
1023
806
423
224
592
1023
1023
1023
1023
899
469
264
833
1023
1023
1023
1023
1023
550
458
1023
1023
1023
1023
1023
1023
577
586
1023
1023
1023
1023
1023
1023
592
720
1023
1023
1023
1023
1023
1023
569
630
1023
1023
1023
1023
1023
973
506
370
976
1023
1023
1023
1023
834
437
248
820
1023
1023
1023
1023
773
406
231
808
1023
1023
1023
1023
747
393
222
797
1023
1023
1023
1023
704
370
206
776
1023
1023
1023
1023
701
369
214
803
1023
1023
1023
1023
736
387
273
898
1023
1023
1023
1023
748
393
298
927
1023
1023
1023
1023
719
378
261
885
1023
1023
1023
1023
656
346
212
819
1023
1023
1023
1023
604
319
187
783
1023
1023
1023
1023
578
306
181
781
1023
1023
1023
1023
563
298
179
787
1023
1023
1023
1023
552
292
181
798
1023
1023
1023
1023
540
286
185
811
1023
1023
1023
1023
529
280
188
820
1023
1023
1023
1002
518
274
191
830
1023
1023
1023
981
507
269
197
842
1023
1023
1023
960
497
264
202
852
1023
1023
1023
938
487
258
205
859
1023
1023
1023
911
474
251
207
864
1023
1023
1023
886
461
244
209
870
1023
1023
1023
860
448
238
210
874
1023
1023
1023
835
436
231
215
881
1023
1023
1023
815
426
226
221
890
1023
1023
1023
798
417
222
233
903
1023
1023
1023
789
412
219
253
922
1023
1023
1023
785
411
218
276
942
1023
1023
1023
780
408
217
294
957
1023
1023
1023
763
399
212
300
961
1023
1023
1023
734
385
205
290
955
1023
1023
1023
695
364
194
276
945
1023
1023
1023
664
348
186
278
948
1023
1023
1023
659
346
184
322
980
1023
1023
1023
693
363
193
423
1023
1023
1023
1023
758
397
211
578
1023
1023
1023
1023
826
432
229
705
1023
1023
1023
1023
865
451
246
784
1023
1023
1023
1023
865
451
250
799
1023
1023
1023
1023
819
429
229
742
1023
1023
1023
1023
740
388
207
629
1023
1023
1023
1023
636
335
179
480
1023
1023
1023
1023
537
283
152
359
1003
1023
1023
912
473
250
134
307
972
1023
1023
871
453
239
128
350
999
1023
1023
927
481
254
136
498
1023
1023
1023
1023
565
298
159
688
1023
1023
1023
1023
661
348
228
852
1023
1023
1023
1023
728
382
330
962
1023
1023
1023
1023
748
392
374
999
1023
1023
1023
1023
714
375
316
950
1023
1023
1023
1023
637
336
217
837
1023
1023
1023
1023
535
283
151
672
1023
1023
1023
812
424
225
121
479
1023
1023
1023
658
345
183
99
304
972
1023
1023
565
297
158
85
275
954
1023
1023
566
297
158
85
423
1023
1023
1023
669
351
186
100
663
1023
1023
1023
867
452
239
207
874
1023
1023
1023
1023
558
294
408
1023
1023
1023
1023
1023
620
327
594
1023
1023
1023
1023
1023
628
331
619
1023
1023
1023
1023
1023
586
309
484
1023
1023
1023
1023
968
503
267
281
940
1023
1023
1023
758
398
211
135
766
1023
1023
1023
584
308
164
88
542
1023
1023
871
450
237
127
68
383
1017
1023
739
383
202
108
58
421
1023
1023
821
425
224
119
65
650
1023
1023
1023
563
296
158
201
892
1023
1023
1023
771
404
214
482
1023
1023
1023
1023
945
492
261
745
1023
1023
1023
1023
1023
538
309
872
1023
1023
1023
1023
1019
529
294
841
1023
1023
1023
1023
911
476
252
667
1023
1023
1023
1023
755
396
211
424
1023
1023
1023
1023
590
311
166
223
908
1023
1023
908
470
249
133
100
764
1023
1023
750
390
207
111
70
709
1023
1023
720
374
198
106
109
801
1023
1023
843
437
231
124
298
968
1023
1023
1023
559
295
157
563
1023
1023
1023
1023
700
368
205
780
1023
1023
1023
1023
791
415
296
922
1023
1023
1023
1023
816
428
333
959
1023
1023
1023
1023
771
405
267
885
1023
1023
1023
1023
676
356
193
742
1023
1023
1023
1023
565
298
160
588
1023
1023
1023
897
466
247
132
436
1023
1023
1023
767
400
212
114
337
994
1023
1023
709
370
196
105
366
1010
1023
1023
741
387
205
110
518
1023
1023
1023
857
446
236
128
700
1023
1023
1023
1023
539
285
210
862
1023
1023
1023
1023
614
324
342
984
1023
1023
1023
1023
648
342
420
1023
1023
1023
1023
1023
623
329
352
991
1023
1023
1023
1023
544
288
205
850
1023
1023
1023
815
426
226
121
624
1023
1023
1023
575
302
161
87
92
784
773
391
204
108
58
32
18
10
6
4
3
2
2
1
1
1
1
1
1
1
1
1
1
1
1
1
1
1
1
1
1
1
1
1
1
1
1
1
1
1
1
1
1
1
1
1
1
1
1
1
1
1
1
1
1
1
1
1
1
1
1
1
0
1
1
1
1
0
1
1
1
1
1
1
1
1
1
0
0
0
1
1
1
1
1
1
1
1
1
1
1
1
0
1
1
0
1
1
1
1
1
1
1
1
1
1
1
1
1
1
1
1
1
1
1
0
1
1
1
0
1
1
0
1
1
1
0
1
0
1
1
0
1
1
1
1
0
1
1
1
0
1
1
1
0
0
1
1
1
0
1
1
1
1
1
1
0
1
316
979
762
389
204
108
57
76
810
1023
1023
877
455
240
128
234
937
1023
1023
948
491
259
139
238
939
1023
1023
879
457
241
129
190
906
1023
1023
785
409
216
116
142
866
1023
1023
690
360
191
102
111
837
1023
1023
623
326
173
93
112
841
1023
1023
620
325
172
92
171
896
1023
1023
695
363
192
103
315
983
1023
1023
820
427
226
121
486
1023
1023
1023
941
488
258
138
621
1023
1023
1023
1023
529
280
150
708
1023
1023
1023
1023
542
286
153
736
1023
1023
1023
1011
524
277
148
694
1023
1023
1023
915
476
252
135
607
1023
1023
1023
793
415
220
118
506
1023
1023
1023
682
357
189
102
416
1023
1023
1023
594
312
166
89
364
1007
1023
1023
533
280
149
80
339
994
1023
974
499
263
140
75
364
1007
1023
985
504
266
141
76
447
1023
1023
1023
558
294
156
84
581
1023
1023
1023
653
342
182
98
724
1023
1023
1023
754
395
209
148
842
1023
1023
1023
829
433
229
231
927
1023
1023
1023
866
452
239
293
971
1023
1023
1023
868
453
240
316
985
1023
1023
1023
841
439
233
295
973
1023
1023
1023
792
415
220
249
942
1023
1023
1023
732
384
204
194
898
1023
1023
1023
669
352
187
149
851
1023
1023
1023
603
318
169
117
812
1023
1023
1023
556
293
156
106
799
1023
1023
1023
534
282
150
121
829
1023
1023
1023
556
293
156
190
903
1023
1023
1023
611
322
171
334
996
1023
1023
1023
675
354
189
502
1023
1023
1023
1023
726
381
203
613
1023
1023
1023
1023
754
396
210
674
1023
1023
1023
1023
753
396
210
693
1023
1023
1023
1023
731
384
204
680
1023
1023
1023
1023
691
363
193
645
1023
1023
1023
1023
646
340
181
595
1023
1023
1023
1023
596
315
168
525
1023
1023
1023
1023
548
289
154
448
1023
1023
1023
968
500
265
142
387
1022
1023
1023
897
465
246
132
381
1019
1023
1023
884
459
243
130
459
1023
1023
1023
942
487
258
138
602
1023
1023
1023
1023
536
284
152
743
1023
1023
1023
1023
586
310
189
843
1023
1023
1023
1023
620
327
236
904
1023
1023
1023
1023
629
332
263
930
1023
1023
1023
1023
607
320
252
922
1023
1023
1023
1023
569
301
220
892
1023
1023
1023
1015
525
278
178
842
1023
1023
1023
925
480
255
145
782
1023
1023
1023
834
435
231
124
704
1023
1023
1023
749
392
208
112
633
1023
1023
1023
683
357
190
102
608
1023
1023
1023
663
347
184
99
658
1023
1023
1023
701
366
195
116
774
1023
1023
1023
777
406
216
206
900
1023
1023
1023
863
449
239
332
992
1023
1023
1023
923
480
255
433
1023
1023
1023
1023
940
488
259
470
1023
1023
1023
1023
912
474
252
454
1023
1023
1023
1023
853
445
236
398
1023
1023
1023
1023
786
411
218
335
994
1023
1023
1023
719
377
201
264
948
1023
1023
1023
651
342
182
194
894
1023
1023
1023
581
306
163
131
826
1023
1023
996
514
271
145
99
782
1023
1023
917
475
250
134
96
784
1023
1023
924
478
252
135
143
853
1023
1023
1023
530
279
149
284
965
1023
1023
1023
597
314
168
481
1023
1023
1023
1023
653
343
183
609
1023
1023
1023
1023
677
355
189
689
1023
1023
1023
1023
666
350
187
716
1023
1023
1023
1023
633
333
178
704
1023
1023
1023
1023
589
310
166
664
1023
1023
1023
1023
545
288
154
621
1023
1023
1023
977
506
267
143
563
1023
1023
1023
891
464
245
131
467
1023
1023
1023
801
418
221
119
326
989
1023
1023
730
382
202
109
251
945
1023
1023
692
362
192
103
265
954
1023
1023
720
376
199
107
383
1018
1023
1023
807
421
223
119
561
1023
1023
1023
908
472
249
134
706
1023
1023
1023
991
513
271
157
795
1023
1023
1023
1023
532
281
180
837
1023
1023
1023
1020
528
279
182
842
1023
1023
1023
974
505
267
167
822
1023
1023
1023
908
473
250
146
784
1023
1023
1023
840
439
232
127
738
1023
1023
1023
773
405
214
115
681
1023
1023
1023
706
370
196
105
616
1023
1023
1023
641
337
179
96
557
1023
1023
1023
587
309
164
88
546
1023
1023
1023
572
301
160
86
590
1023
1023
1023
601
316
168
90
695
1023
1023
1023
660
346
184
130
811
1023
1023
1023
719
377
200
204
899
1023
1023
1023
760
398
211
269
951
1023
1023
1023
770
403
214
300
972
1023
1023
1023
754
395
210
298
971
1023
1023
1023
719
377
200
274
955
1023
1023
1023
677
356
189
242
932
1023
1023
1023
636
335
178
210
908
1023
1023
1023
595
314
167
178
879
1023
1023
1023
555
293
156
146
847
1023
1023
1002
515
272
145
121
818
1023
1023
937
484
256
136
117
816
1023
1023
916
473
250
134
137
845
1023
1023
943
487
257
137
195
902
1023
1023
993
511
270
144
281
963
1023
1023
1023
536
283
151
369
1013
1023
1023
1023
551
291
155
433
1023
1023
1023
1023
552
292
156
464
1023
1023
1023
1023
542
286
153
471
1023
1023
1023
1018
525
277
148
465
1023
1023
1023
976
504
267
143
454
1023
1023
1023
934
483
256
137
441
1023
1023
1023
888
461
244
130
419
1023
1023
1023
845
439
233
124
400
1023
1023
1023
806
419
222
119
396
1023
1023
1023
783
408
216
116
419
1023
1023
1023
782
407
216
115
477
1023
1023
1023
799
416
221
118
544
1023
1023
1023
819
426
226
121
607
1023
1023
1023
831
433
229
123
646
1023
1023
1023
826
430
228
122
669
1023
1023
1023
810
422
224
120
675
1023
1023
1023
783
409
217
116
672
1023
1023
1023
753
393
209
112
663
1023
1023
1023
723
378
201
108
656
1023
1023
1023
693
362
193
103
645
1023
1023
1023
664
348
185
99
638
1023
1023
1023
637
334
178
95
630
1023
1023
1023
615
323
172
92
635
1023
1023
1023
602
316
168
90
655
1023
1023
1023
598
314
167
90
685
1023
1023
1023
601
316
168
93
718
1023
1023
1023
602
316
168
99
748
1023
1023
1023
599
315
168
105
769
1023
1023
1023
591
310
165
110
782
1023
1023
1023
578
304
162
112
789
1023
1023
1023
563
296
158
114
797
1023
1023
1023
549
289
154
116
803
1023
1023
1023
536
282
151
118
810
1023
1023
1016
524
276
147
124
820
1023
1023
995
512
271
144
132
833
1023
1023
981
506
267
143
146
851
1023
1023
972
502
265
142
166
873
1023
1023
968
500
264
141
190
895
1023
1023
961
497
262
140
213
915
1023
1023
951
492
260
139
232
930
1023
1023
934
484
255
137
244
938
1023
1023
915
474
250
134
259
948
1023
1023
896
465
245
131
276
959
1023
1023
881
458
242
129
298
973
1023
1023
868
451
238
128
322
987
1023
1023
856
445
235
126
349
1001
1023
1023
847
441
233
125
378
1016
1023
1023
838
436
231
124
409
1023
1023
1023
828
432
228
122
436
1023
1023
1023
819
427
226
121
460
1023
1023
1023
805
420
222
119
479
1023
1023
1023
791
413
218
117
495
1023
1023
1023
771
403
213
114
508
1023
1023
1023
754
395
209
112
522
1023
1023
1023
737
386
204
110
536
1023
1023
1023
721
377
200
107
549
1023
1023
1023
706
370
196
105
562
1023
1023
1023
693
363
192
103
581
1023
1023
1023
683
358
190
102
603
1023
1023
1023
675
354
188
101
626
1023
1023
1023
668
350
186
100
653
1023
1023
1023
663
348
184
99
678
1023
1023
1023
655
344
182
98
699
1023
1023
1023
647
340
180
98
716
1023
1023
1023
637
335
178
99
733
1023
1023
1023
627
330
175
102
750
1023
1023
1023
616
323
172
104
764
1023
1023
1023
604
318
169
107
773
1023
1023
1023
591
311
165
109
783
1023
1023
1023
578
304
162
112
794
1023
1023
1023
567
299
159
120
810
1023
1023
1023
560
295
157
131
829
1023
1023
1023
554
292
156
144
847
1023
1023
1023
548
289
154
161
867
1023
1023
1023
543
286
152
175
882
1023
1023
1023
535
283
151
193
899
1023
1023
1023
527
278
148
206
910
1023
1023
1005
517
273
146
220
922
1023
1023
984
507
268
143
231
930
1023
1023
963
497
263
140
246
941
1023
1023
942
487
258
137
256
948
1023
1023
922
477
252
135
270
957
1023
1023
902
467
247
132
283
965
1023
1023
883
458
242
129
303
977
1023
1023
868
451
238
127
318
986
1023
1023
851
442
234
125
331
993
1023
1023
830
431
228
122
337
996
1023
1023
807
420
222
119
347
1001
1023
1023
785
409
217
116
356
1006
1023
1023
767
400
212
113
372
1014
1023
1023
750
391
207
111
388
1022
1023
1023
735
384
203
109
404
1023
1023
1023
720
376
200
107
419
1023
1023
1023
707
369
196
105
438
1023
1023
1023
693
362
192
103
455
1023
1023
1023
679
355
188
101
468
1023
1023
1023
661
346
184
98
477
1023
1023
1023
640
335
178
95
482
1023
1023
1023
617
323
172
92
483
1023
1023
1023
588
308
164
88
481
1023
1023
1023
562
295
157
84
476
1023
1023
1023
540
283
151
81
480
1023
1023
1021
524
275
147
78
493
1023
1023
999
513
270
144
77
515
1023
1023
987
507
267
142
76
538
1023
1023
979
503
265
141
76
567
1023
1023
979
503
265
141
76
601
1023
1023
985
507
267
142
76
635
1023
1023
988
508
268
143
76
662
1023
1023
976
502
265
141
76
681
1023
1023
957
494
260
139
74
691
1023
1023
927
479
252
135
73
699
1023
1023
902
467
246
131
72
706
1023
1023
872
452
238
127
70
712
1023
1023
843
437
231
123
69
718
1023
1023
820
426
225
120
70
728
1023
1023
802
417
220
117
72
742
1023
1023
788
410
216
115
77
759
1023
1023
775
403
213
114
81
771
1023
1023
753
392
207
111
79
771
1023
1023
717
374
197
106
72
758
1023
1023
667
348
184
98
60
732
1023
1023
596
312
165
88
48
692
1023
1023
520
273
145
77
42
657
1023
895
457
240
127
68
37
635
1023
804
412
216
115
61
33
614
1023
717
368
193
102
55
30
571
1023
605
312
164
87
46
25
498
920
478
247
130
68
37
20
431
738
370
191
100
53
28
16
342
479
241
124
65
34
18
10
159
160
80
40
21
11
6
4
3
2
1
1
1
1
1
1
1
1
1
1
1
1
1
1
0
1
1
1
1
1
1
1
1
1
1
1
1
1
1
1
1
1
1
1
1
1
1
1
1
1
1
1
1
1
1
1
1
1
91
356
606
781
941
965
512
477
916
1023
1023
1023
1023
1023
1023
1023
1023
1023
1023
1023
1023
1023
1023
1023
1023
1023
1023
1023
1023
1023
1023
1023
1023
1023
1023
1023
1023
1023
1023
1023
1023
1023
1023
1023
1023
1023
1023
1023
1023
1023
1023
1023
1023
1023
1023
1023
1023
1023
1023
1023
1023
1023
1023
1023
1023
976
858
853
908
1023
1023
1023
1003
687
538
546
610
895
1023
1023
815
505
379
382
444
738
1023
1023
768
498
415
407
449
608
1023
1023
905
821
818
887
958
735
974
1023
1023
1023
1023
1023
1023
1023
667
893
1023
1023
1023
1023
1023
1023
1023
1023
1023
1023
1023
1023
1023
1023
1023
1023
1023
1023
1023
1023
1023
1023
1023
1023
1023
1023
1023
1023
1023
1023
1023
1023
1023
1023
1023
1023
1023
1023
1023
1023
1023
1023
1023
1023
1023
1023
1023
1023
1023
1023
1023
1023
1023
1023
1023
1023
1023
1023
1023
1023
1023
1023
1023
1023
1023
1023
1023
1023
1023
1023
1023
1023
1023
1023
1023
1023
1023
1023
1023
1023
1023
1023
1023
1023
1023
1023
1023
1023
1023
1023
1023
1023
1023
1023
1023
1023
1023
1023
1023
1023
1023
1023
1023
1023
1023
1023
1023
1023
1023
1023
1023
1023
1023
1023
1023
1023
1023
1023
1023
1023
1023
1023
1023
1023
1023
1023
1023
1023
1023
1023
1023
1023
1023
1023
1023
1023
1023
1023
1023
1023
1023
1023
1023
1023
1023
1023
1023
1023
1023
1023
1023
1023
1023
1023
1023
1023
1023
1023
1023
1023
1023
1023
1023
1023
1023
1023
1023
1023
1023
1023
1023
1023
1023
1023
1023
1023
1023
1023
1023
1023
1023
1023
1023
1023
1023
1023
1023
1023
1023
1023
1023
1023
1023
1023
1023
1023
1023
1023
1023
1023
1023
1023
1023
1023
1023
1023
1023
1023
1023
1023
1023
1023
1023
1023
1023
1023
1023
1023
1023
1023
1023
1023
1023
1023
1023
1023
1023
1023
1023
1023
1023
1023
1023
1023
1023
1023
1023
1023
1023
1023
1023
1023
1023
1023
1023
1023
1023
1023
1023
1023
1023
1023
1023
1023
1023
1023
1023
1023
1023
1023
1023
1023
1023
1023
1023
1023
1023
1023
1023
1023
1023
1023
969
947
947
954
965
985
986
968
932
910
929
921
924
942
945
930
917
902
888
857
831
825
819
846
856
845
846
844
807
799
828
835
820
809
807
786
790
773
758
779
796
780
734
719
726
734
731
731
715
703
714
716
722
729
708
694
720
740
711
645
1023
1023
1023
714
376
201
109
249
929
1023
1023
1023
804
420
282
883
1023
1023
1023
1023
976
506
475
1023
1023
1023
1023
1023
970
504
503
1023
1023
1023
1023
1023
1003
520
631
1023
1023
1023
1023
1023
1014
526
681
1023
1023
1023
1023
1023
996
516
667
1023
1023
1023
1023
1023
985
511
675
1023
1023
1023
1023
1023
980
508
695
1023
1023
1023
1023
1023
962
500
707
1023
1023
1023
1023
1023
919
479
660
1023
1023
1023
1023
1023
881
460
622
1023
1023
1023
1023
1023
845
442
579
1023
1023
1023
1023
1023
805
422
523
1023
1023
1023
1023
1023
766
402
468
1023
1023
1023
1023
1023
728
383
427
1023
1023
1023
1023
1023
698
367
402
1009
1023
1023
1023
1023
672
354
386
997
1023
1023
1023
1023
647
341
370
985
1023
1023
1023
1023
622
328
350
971
1023
1023
1023
1023
597
315
334
958
1023
1023
1023
1023
575
304
320
948
1023
1023
1023
1023
556
294
316
946
1023
1023
1023
1023
542
287
319
950
1023
1023
1023
1022
529
280
323
955
1023
1023
1023
995
516
273
322
955
1023
1023
1023
960
498
264
312
949
1023
1023
1023
920
479
254
299
938
1023
1023
1023
882
460
244
288
931
1023
1023
1023
848
443
235
281
927
1023
1023
1023
820
429
228
280
928
1023
1023
1023
797
417
222
279
929
1023
1023
1023
770
404
215
275
927
1023
1023
1023
743
390
207
270
924
1023
1023
1023
716
376
200
264
921
1023
1023
1023
689
362
193
260
919
1023
1023
1023
668
351
187
261
922
1023
1023
1023
646
340
181
261
923
1023
1023
1023
624
329
175
262
926
1023
1023
1023
602
318
169
264
929
1023
1023
1023
585
309
165
272
937
1023
1023
1023
571
302
161
283
947
1023
1023
1023
559
296
158
293
955
1023
1023
1023
544
288
154
300
961
1023
1023
1023
528
279
149
303
964
1023
1023
988
509
270
144
306
967
1023
1023
957
494
262
140
312
972
1023
1023
929
481
255
136
320
978
1023
1023
905
469
249
133
328
984
1023
1023
880
457
242
130
337
990
1023
1023
855
444
236
126
342
993
1023
1023
828
431
228
122
345
996
1023
1023
803
418
222
119
349
998
1023
1023
778
405
215
115
355
1002
1023
1023
758
395
210
112
365
1008
1023
1023
740
387
205
110
377
1015
1023
1023
721
377
200
107
386
1020
1023
1023
703
367
195
104
399
1023
1023
1023
688
360
191
102
415
1023
1023
1023
677
354
188
101
436
1023
1023
1023
665
348
185
99
454
1023
1023
1023
653
342
182
97
472
1023
1023
1023
644
337
179
96
496
1023
1023
1023
636
334
177
95
519
1023
1023
1023
627
329
175
94
539
1023
1023
1023
617
324
172
92
554
1023
1023
1023
605
318
169
91
570
1023
1023
1023
593
311
166
89
581
1023
1023
1023
581
305
163
87
594
1023
1023
1023
570
300
160
85
609
1023
1023
1023
562
295
158
84
630
1023
1023
1023
555
292
156
83
648
1023
1023
1023
547
288
154
82
666
1023
1023
1023
538
283
151
82
679
1023
1023
1023
529
279
149
82
693
1023
1023
1010
520
274
146
83
706
1023
1023
992
511
270
144
85
720
1023
1023
974
502
265
141
86
730
1023
1023
953
492
260
139
89
744
1023
1023
937
484
256
137
93
757
1023
1023
922
477
252
135
98
771
1023
1023
905
469
247
132
102
781
1023
1023
888
460
243
130
107
792
1023
1023
870
452
238
128
112
802
1023
1023
852
443
234
125
116
811
1023
1023
835
434
229
123
125
824
1023
1023
824
429
226
121
134
837
1023
1023
813
423
223
120
145
850
1023
1023
799
416
220
118
157
863
1023
1023
786
410
217
116
168
876
1023
1023
774
404
213
114
180
887
1023
1023
762
398
210
113
191
898
1023
1023
746
389
206
110
198
903
1023
1023
726
379
201
108
203
908
1023
1023
706
369
195
105
212
915
1023
1023
691
362
192
103
224
924
1023
1023
680
356
188
101
240
936
1023
1023
669
350
186
99
256
946
1023
1023
654
343
182
97
268
954
1023
1023
641
336
178
95
282
963
1023
1023
625
328
174
93
298
972
1023
1023
614
322
171
92
317
983
1023
1023
604
317
168
90
338
995
1023
1023
595
313
166
89
361
1006
1023
1023
586
308
164
88
383
1017
1023
1023
578
304
161
86
402
1023
1023
1023
567
298
158
85
421
1023
1023
1023
557
293
156
83
440
1023
1023
1023
546
287
153
82
455
1023
1023
1023
533
281
149
80
469
1023
1023
1021
523
275
146
78
484
1023
1023
997
511
270
143
77
500
1023
1023
977
501
265
141
75
516
1023
1023
955
491
259
138
74
529
1023
1023
929
478
252
134
72
537
1023
1023
899
463
244
130
70
548
1023
1023
874
451
238
127
68
560
1023
1023
855
442
233
124
67
575
1023
1023
837
433
229
122
65
590
1023
1023
817
423
224
119
64
601
1023
1023
795
412
218
116
62
614
1023
1023
776
403
213
113
61
626
1023
1023
760
395
209
111
60
642
1023
1023
744
387
205
109
59
656
1023
1023
729
379
201
107
58
671
1023
1023
713
371
196
105
56
679
1023
1023
691
359
190
101
55
686
1023
1023
667
347
184
98
54
694
1023
1023
648
337
179
95
54
706
1023
1023
630
330
175
93
54
717
1023
1023
615
321
170
91
55
726
1023
1023
596
311
165
88
56
735
1023
1023
576
301
160
85
57
741
1023
1023
556
291
154
82
58
750
1023
1023
539
282
150
80
61
759
1023
1023
524
275
146
78
67
775
1023
1007
514
270
143
76
72
786
1023
983
502
263
140
74
79
799
1023
957
490
257
137
73
84
808
1023
929
476
250
133
71
94
821
1023
911
468
245
131
70
103
833
1023
889
457
240
128
68
115
847
1023
869
447
235
125
67
125
857
1023
844
435
228
122
65
136
868
1023
821
424
223
118
63
146
877
1023
799
413
217
115
62
159
888
1023
776
401
211
112
60
167
895
1023
751
389
205
109
58
177
903
1023
727
377
198
106
56
188
910
1023
705
365
192
102
55
200
919
1023
684
355
187
99
53
216
929
1023
669
347
183
97
52
237
941
1023
658
342
180
96
51
255
952
1023
643
334
176
94
50
273
962
1023
628
327
172
92
49
293
972
1023
613
319
168
90
48
315
983
1023
602
314
166
88
47
335
993
1023
588
306
162
86
46
353
1002
1023
575
300
158
84
45
367
1009
1023
555
289
153
81
44
376
1013
1023
535
279
148
79
42
389
1020
1023
517
269
143
76
41
404
1023
998
504
264
140
74
40
422
1023
973
492
258
136
72
39
442
1023
954
483
253
134
71
38
456
1023
921
468
245
130
69
37
465
1023
889
452
237
125
67
36
484
1023
874
445
233
123
66
35
511
1023
874
445
233
124
66
35
540
1023
878
447
234
124
66
36
568
1023
877
447
234
124
66
36
592
1023
873
446
234
124
66
36
611
1023
858
438
230
122
65
35
625
1023
834
427
224
118
63
34
636
1023
812
416
218
116
62
33
653
1023
804
412
216
114
61
33
676
1023
801
411
216
114
61
33
695
1023
791
406
213
113
60
34
709
1023
772
397
208
110
59
35
720
1023
750
386
203
107
57
35
726
1023
723
372
195
104
55
36
735
1023
701
361
190
100
54
40
747
1023
689
355
187
99
53
45
762
1023
677
349
184
97
52
51
777
1023
668
345
181
96
51
58
790
1023
654
338
178
94
50
64
800
1023
638
330
174
92
49
71
810
1023
622
322
170
90
48
79
821
1023
606
314
165
88
47
84
827
1023
586
303
160
85
45
89
833
1023
565
293
155
82
44
93
838
1023
542
281
148
78
42
93
839
999
514
267
141
74
40
95
842
962
491
255
134
71
38
102
848
934
475
246
130
69
37
114
860
921
467
243
128
68
36
132
875
913
463
240
127
67
36
149
888
896
454
236
125
66
35
159
895
868
439
229
121
64
34
173
904
843
428
223
118
62
33
192
916
835
424
221
117
62
33
224
935
839
426
222
117
62
33
262
955
853
433
226
119
63
34
300
974
858
436
227
120
64
34
330
989
860
437
228
121
64
34
363
1006
863
439
229
121
64
34
388
1018
857
436
228
121
64
34
416
1023
849
432
226
119
63
34
433
1023
834
425
222
117
62
34
452
1023
818
418
218
115
61
33
465
1023
799
408
213
113
60
32
484
1023
782
400
209
111
59
32
489
1023
751
385
201
106
56
30
504
1023
737
378
197
105
56
30
517
1023
714
366
192
101
54
29
538
1023
709
364
190
101
53
29
559
1023
701
360
189
100
53
29
578
1023
695
357
187
99
53
28
593
1023
677
348
182
96
51
28
613
1023
675
347
182
96
51
28
636
1023
672
346
181
96
51
28
655
1023
670
345
181
96
51
28
670
1023
651
336
176
93
49
27
676
1023
628
324
170
90
48
26
678
1023
594
307
161
85
45
25
675
1011
561
290
152
80
43
23
675
977
531
275
144
76
40
22
676
943
503
261
137
72
38
21
671
899
471
244
128
68
36
20
680
871
453
235
123
65
35
22
717
906
487
252
132
70
37
29
742
968
584
301
158
83
44
44
770
1022
719
430
274
224
236
225
895
1023
1023
894
801
755
750
630
1023
1023
945
665
477
400
380
311
947
1023
940
753
667
636
627
549
1023
1023
1023
903
826
787
785
688
1023
1023
1023
1023
959
926
947
823
1023
1023
1023
1023
1023
1008
1014
895
1023
1023
1023
1023
1023
1023
1023
985
1023
1023
1023
1023
1023
1023
1023
1023
1023
1023
1023
1023
1023
1023
1023
1023
1023
1023
1023
1023
1023
1023
1023
1023
1023
1023
1023
1023
1023
1023
1023
1023
1023
1023
1023
1023
1023
1023
1023
1023
1023
1023
1023
1023
1023
1023
1023
1023
1023
1023
1023
1023
1023
1023
1023
1023
1023
1023
1023
1023
1023
1023
1023
1023
1023
1023
1023
1023
1023
1023
1023
1023
1023
1023
1023
1023
1023
1023
1023
1023
1023
1023
1023
1023
1023
1023
1023
1023
1023
1023
1023
1023
1023
1023
1023
1023
1023
1023
1023
1023
1023
1023
1023
1023
1023
1023
1023
1023
1023
1023
1023
1023
1023
1023
1023
1023
1023
1023
1023
1023
1023
1023
1023
1023
1023
1023
1023
1023
912
1023
1023
1023
1023
1023
1023
1017
738
1023
1023
1023
1023
1023
1023
998
623
946
1023
1023
1023
1023
1023
1007
613
953
1023
1023
1023
1023
1023
978
596
958
1023
1023
1023
1023
1023
1001
644
1023
1023
1023
1023
1023
1023
996
661
1023
1023
1023
1023
1023
1023
1005
696
1023
1023
1023
1023
1023
1023
977
672
1023
1023
1023
1023
1023
1023
996
723
1023
1023
1023
1023
1023
1023
953
712
1023
1023
1023
1023
1023
1023
919
683
1023
1023
1023
1023
1023
1023
904
678
1023
1023
1023
1023
1023
1023
867
639
1023
1023
1023
1023
1023
1023
850
640
1023
1023
1023
1023
1023
1023
830
637
1023
1023
1023
1023
1023
1023
799
604
1023
1023
1023
1023
1023
1023
797
615
1023
1023
1023
1023
1023
1023
778
618
1023
1023
1023
1023
1023
1023
760
609
1009
1023
1023
1023
1023
1023
738
628
1023
1023
1023
1023
1023
1023
735
631
1023
1023
1023
1023
1023
1023
681
596
1016
1023
1023
1023
1023
1023
682
606
986
1023
1023
1023
1023
1023
624
556
951
1023
1023
1023
1023
1023
595
537
932
1023
1023
1023
1023
1023
579
529
920
1023
1023
1023
1023
1023
562
517
912
1023
1023
1023
1023
1023
572
547
930
1023
1023
1023
1023
1021
527
614
985
1023
1023
1023
1023
991
690
823
1023
1023
1023
1023
1023
995
902
983
1023
1023
1023
1023
1023
882
865
954
1023
1023
1023
1023
1023
765
753
852
998
1023
1023
1023
1023
699
672
793
957
1023
1023
1023
1023
756
718
940
1023
1023
1023
1023
1023
846
649
684
807
850
834
827
812
473
302
452
699
857
907
903
915
570
410
538
728
860
934
966
922
577
536
665
818
899
938
934
894
611
624
713
795
824
822
863
871
605
642
698
792
886
906
876
813
571
614
673
745
790
805
809
773
524
515
623
731
790
820
834
767
414
263
475
682
775
817
836
792
413
235
424
670
807
845
841
776
403
231
422
696
843
895
918
864
449
248
436
716
859
923
963
909
472
245
372
688
904
996
1023
970
505
263
374
708
900
1007
1023
969
504
264
403
689
880
977
1009
919
474
247
372
670
848
924
930
849
437
228
354
649
815
868
891
801
408
212
337
603
786
875
916
854
438
229
345
607
779
852
911
826
421
225
379
644
813
882
902
790
402
217
372
624
783
848
876
791
403
219
352
609
749
787
809
735
372
200
358
608
758
808
815
719
363
194
334
568
674
718
747
659
331
180
344
580
712
761
775
630
318
171
295
506
645
725
751
616
311
167
302
512
625
680
721
572
289
154
287
517
662
727
748
571
290
160
307
530
669
738
768
567
288
169
360
609
773
828
822
568
291
172
378
606
735
802
820
584
297
174
368
598
729
788
797
555
283
174
391
652
772
813
841
589
300
203
432
656
796
848
853
585
299
215
474
705
824
882
894
598
306
198
438
655
781
873
899
610
311
233
504
766
896
956
977
630
323
245
528
793
930
995
1009
652
334
263
552
823
939
961
996
646
331
295
620
884
1007
1023
1017
629
324
300
632
872
985
1023
1023
643
331
294
603
850
1000
1023
1023
688
354
348
684
944
1023
1023
1023
642
331
347
651
893
1023
1023
1023
629
324
320
610
855
999
1023
1023
637
328
328
622
838
937
977
998
608
313
330
616
800
878
889
902
537
276
284
529
713
810
872
898
536
276
298
522
685
759
773
724
420
216
238
468
651
728
753
742
426
219
219
406
546
616
653
674
381
195
205
394
538
594
612
594
322
165
167
366
514
585
608
576
309
159
163
339
476
545
577
572
304
156
137
310
474
544
577
559
292
150
152
303
414
476
493
485
253
130
143
302
405
459
487
486
253
130
223
471
657
781
856
851
469
243
314
465
513
493
430
324
166
87
69
214
353
407
431
393
198
101
90
242
374
426
460
445
225
115
135
265
363
435
471
405
203
105
142
300
415
459
453
419
212
109
163
313
402
430
438
383
192
99
155
298
394
419
452
418
210
108
154
288
400
468
462
409
208
107
167
284
353
425
476
453
232
147
278
397
422
455
483
429
219
122
213
324
414
470
481
424
219
158
265
355
451
493
480
427
221
206
332
415
446
468
497
476
252
190
271
357
411
436
457
402
207
158
243
305
349
387
395
333
168
116
194
278
263
217
207
160
81
49
110
175
183
172
158
115
58
30
65
122
143
191
207
151
75
38
70
161
191
188
207
161
80
41
87
131
160
184
186
136
68
66
158
232
237
229
241
181
90
86
174
223
240
258
265
207
103
119
206
246
273
283
270
212
108
149
219
235
265
294
294
215
108
102
204
272
283
290
294
209
105
133
221
251
272
302
323
281
147
151
226
282
316
331
358
290
156
173
208
246
281
288
308
226
118
167
237
296
306
286
276
212
131
191
249
307
327
337
351
247
127
170
249
276
261
260
305
257
143
211
302
336
348
349
308
212
141
182
253
299
313
320
338
247
160
243
315
324
341
359
349
229
123
174
253
313
345
337
345
233
137
183
282
328
355
379
380
277
180
231
281
306
338
359
366
236
152
224
308
336
331
322
335
230
150
231
314
325
334
363
383
263
166
228
285
334
375
396
423
298
199
250
314
354
373
378
365
246
167
241
324
370
380
344
322
219
184
266
346
387
389
401
417
285
216
281
351
391
385
379
340
216
187
283
382
408
383
377
384
239
169
240
334
375
412
438
431
263
184
279
360
403
415
400
371
217
189
277
326
341
342
367
370
225
218
327
399
393
379
385
390
250
227
321
379
392
387
414
425
241
201
277
349
393
401
403
394
237
234
312
367
423
464
481
443
243
216
311
383
437
438
464
432
238
240
366
414
415
415
421
393
210
193
288
377
422
417
426
416
221
200
289
393
458
463
461
405
206
142
231
329
400
441
491
439
220
175
456
713
849
899
888
644
1023
937
701
529
428
358
303
612
1023
1023
615
320
169
90
48
502
1023
1023
681
354
186
99
53
543
1023
1023
845
437
230
122
66
678
1023
1023
999
514
270
144
81
750
1023
1023
1023
537
282
150
88
765
1023
1023
1022
526
277
147
85
759
1023
1023
968
499
263
140
78
742
1023
1023
910
470
248
132
72
724
1023
1023
849
440
232
124
66
708
1023
1023
799
415
219
117
63
695
1023
1023
750
390
206
110
59
688
1023
1023
713
371
196
105
56
686
1023
1023
677
353
186
99
53
687
1023
1023
651
339
179
95
51
695
1023
1023
634
331
175
93
50
706
1023
1023
621
325
172
91
51
718
1023
1023
611
319
169
90
52
733
1023
1023
602
315
166
89
55
748
1023
1023
593
310
164
87
55
747
1023
1023
563
295
156
83
54
751
1023
1023
549
288
152
81
63
776
1023
1023
558
292
155
82
79
805
1023
1023
568
298
158
84
94
825
1023
1023
567
297
157
84
108
842
1023
1023
566
297
157
84
130
864
1023
1023
572
300
159
85
154
885
1023
1023
574
301
159
85
172
899
1023
1023
568
298
158
84
191
913
1023
1023
560
294
156
83
213
927
1023
1023
557
292
155
83
238
943
1023
1023
553
291
154
82
260
955
1023
1023
546
287
152
81
279
965
1023
1023
537
282
149
80
300
975
1023
1023
529
278
148
79
328
989
1023
1023
527
277
147
79
357
1004
1023
1023
523
275
146
78
380
1015
1023
1010
516
272
144
77
401
1023
1023
998
510
269
143
76
426
1023
1023
993
508
268
142
76
452
1023
1023
987
505
267
142
76
473
1023
1023
975
500
264
140
75
496
1023
1023
967
497
262
139
75
523
1023
1023
967
496
262
139
74
546
1023
1023
961
493
260
138
74
569
1023
1023
954
490
258
137
73
593
1023
1023
954
490
259
137
74
621
1023
1023
956
491
259
138
74
644
1023
1023
954
490
259
138
74
666
1023
1023
945
486
257
137
73
681
1023
1023
935
481
254
135
72
702
1023
1023
926
477
252
134
72
719
1023
1023
920
474
250
133
73
736
1023
1023
905
467
247
131
74
748
1023
1023
890
460
243
129
77
763
1023
1023
874
452
239
127
79
771
1023
1023
854
442
233
124
80
779
1023
1023
829
429
227
121
82
787
1023
1023
808
419
222
118
87
800
1023
1023
796
413
218
116
94
813
1023
1023
790
410
217
115
104
829
1023
1023
781
406
214
114
115
843
1023
1023
769
400
211
113
122
851
1023
1023
755
393
208
111
131
861
1023
1023
740
385
204
109
146
876
1023
1023
738
384
203
108
167
894
1023
1023
741
386
204
109
196
916
1023
1023
746
388
206
110
220
932
1023
1023
738
384
204
109
236
942
1023
1023
725
378
200
107
249
950
1023
1023
705
368
195
104
257
954
1023
1023
685
357
189
101
266
960
1023
1023
666
348
184
98
284
969
1023
1023
658
344
182
97
310
982
1023
1023
650
340
181
96
335
995
1023
1023
648
339
180
96
360
1007
1023
1023
639
334
177
95
381
1018
1023
1023
631
330
175
94
399
1023
1023
1023
620
325
172
92
420
1023
1023
1023
612
320
170
91
441
1023
1023
1023
606
318
169
90
468
1023
1023
1023
605
317
168
90
493
1023
1023
1023
601
315
167
89
513
1023
1023
1023
592
310
165
88
530
1023
1023
1023
583
306
163
87
546
1023
1023
1023
576
302
161
86
564
1023
1023
1023
568
298
159
85
579
1023
1023
1023
556
292
155
83
593
1023
1023
1023
545
287
152
81
607
1023
1023
1023
537
282
150
80
623
1023
1023
1023
529
278
148
79
640
1023
1023
1018
523
275
147
78
659
1023
1023
1006
517
272
145
77
676
1023
1023
997
512
270
144
77
694
1023
1023
985
507
267
142
76
711
1023
1023
976
502
265
141
76
728
1023
1023
964
497
262
140
78
745
1023
1023
957
494
260
139
82
762
1023
1023
947
489
258
137
85
776
1023
1023
932
481
254
135
90
789
1023
1023
915
473
249
133
94
800
1023
1023
896
464
244
131
99
811
1023
1023
881
456
241
128
105
822
1023
1023
862
447
236
126
110
829
1023
1023
835
434
229
122
110
831
1023
1023
804
418
221
118
107
828
1023
1023
763
397
210
112
99
820
1023
1023
717
374
197
105
89
808
1023
1023
664
347
183
98
75
788
1023
1023
606
317
168
90
63
769
1023
1023
553
290
153
82
52
746
1023
993
505
265
141
75
45
731
1023
916
468
246
130
69
41
726
1023
872
446
234
124
66
43
742
1023
862
441
232
123
65
50
764
1023
873
447
235
124
66
68
798
1023
902
462
242
128
68
94
831
1023
941
481
252
134
71
123
861
1023
965
493
259
137
73
153
886
1023
983
501
264
140
75
184
909
1023
993
507
267
141
75
212
928
1023
1000
510
269
142
76
247
948
1023
1007
514
271
143
76
281
965
1023
1015
518
272
144
77
312
982
1023
1011
516
272
144
77
339
995
1023
1006
514
271
144
77
367
1009
1023
1004
513
270
143
76
391
1021
1023
989
506
267
142
76
406
1023
1023
969
496
262
139
74
424
1023
1023
946
485
256
136
73
437
1023
1023
926
476
251
133
71
448
1023
1023
896
461
243
129
69
456
1023
1023
871
448
236
126
67
464
1023
1023
840
434
229
121
65
471
1023
1023
814
420
222
118
63
472
1023
1023
777
402
212
113
60
467
1023
1023
739
383
202
107
58
459
1023
1023
692
359
190
101
54
442
1023
1023
641
333
175
93
50
408
1023
1023
574
299
158
84
45
348
998
971
492
257
136
72
39
230
938
742
379
197
104
55
30
70
710
424
217
113
59
31
17
10
6
4
3
2
1
1
1
1
1
1
1
1
1
1
1
1
1
1
1
1
1
1
1
1
1
1
1
1
1
1
1
1
1
1
1
1
1
1
1
1
1
1
1
1
1
1
1
1
1
1
1
2
44
122
192
223
286
379
446
450
505
608
684
754
783
822
886
941
973
997
1017
1023
1023
1023
1023
1023
1023
1023
1023
1023
1023
1023
1023
1023
1023
1023
1023
1023
1023
1023
1023
1023
1023
1023
1023
1023
1023
1023
1023
1023
1023
1023
1023
1023
1023
1023
1023
1023
1023
1023
1023
1023
1023
1023
1023
1023
1023
1023
1023
1023
1023
1023
1023
1023
1023
1023
1023
1023
1023
1023
1023
1023
1023
1023
1023
1023
1023
1023
1023
1023
1023
1023
1023
1023
1023
1023
1023
1023
1023
1023
1023
1023
1023
1023
1023
1023
1023
1023
1023
1023
1023
1023
1023
1023
1023
1023
1023
1023
1023
1023
1023
1023
1023
1023
1023
1023
1023
1023
1023
1023
1023
1023
1023
1023
725
1023
1023
1023
1023
1023
1023
1023
1023
1023
1023
1023
1023
1023
1023
1023
1023
1023
872
555
369
297
627
1023
1023
886
459
243
131
71
231
939
1023
867
447
236
126
68
302
977
1023
934
480
253
135
72
359
1005
1023
960
493
260
139
74
391
1022
1023
954
490
258
138
74
398
1023
1023
913
471
248
132
71
387
1019
1023
849
439
231
123
66
360
1006
1023
780
404
213
114
61
341
996
1023
724
376
198
106
57
331
991
1023
685
356
188
100
54
346
999
1023
675
351
185
98
53
381
1016
1023
688
357
189
100
54
437
1023
1023
720
374
197
105
56
478
1023
1023
732
380
200
107
57
498
1023
1023
717
373
197
105
56
500
1023
1023
685
357
188
100
54
493
1023
1023
644
336
177
94
51
471
1023
1023
592
309
163
87
47
452
1023
1023
550
287
152
81
43
448
1023
1023
523
274
145
77
41
469
1023
1023
524
274
145
77
41
512
1023
1023
544
285
150
80
43
570
1023
1023
582
304
161
85
46
623
1023
1023
609
318
168
90
48
650
1023
1023
610
319
169
90
48
661
1023
1023
590
309
163
87
47
654
1023
1023
556
291
154
82
44
635
1023
1001
507
266
141
75
40
606
1023
898
458
240
127
68
37
578
1023
812
416
218
115
61
33
563
1023
753
386
202
107
57
31
574
1023
740
380
199
105
56
30
616
1023
781
400
210
111
59
32
677
1023
852
436
229
121
64
41
741
1023
947
483
253
134
71
63
788
1023
999
508
267
141
75
82
817
1023
1015
516
271
144
76
95
832
1023
998
508
267
142
75
103
842
1023
973
496
261
138
74
106
845
1023
936
478
251
133
71
107
847
1023
899
460
242
128
68
111
852
1023
872
448
235
125
66
122
863
1023
859
441
232
123
66
140
879
1023
859
441
232
123
66
169
900
1023
866
445
234
124
66
204
923
1023
885
454
239
127
68
255
952
1023
917
470
247
131
70
304
977
1023
939
481
253
134
72
335
992
1023
934
479
252
134
71
343
996
1023
895
460
242
129
69
335
992
1023
844
435
229
122
65
323
986
1023
796
411
216
115
61
317
983
1023
752
389
205
109
58
310
979
1023
714
369
195
103
55
307
978
1023
680
352
186
99
53
313
981
1023
660
342
180
96
51
337
993
1023
654
339
179
95
51
362
1005
1023
650
337
178
95
51
402
1023
1023
668
347
183
97
52
462
1023
1023
707
366
193
103
55
513
1023
1023
732
379
200
106
57
547
1023
1023
740
384
203
108
58
569
1023
1023
733
380
201
107
57
586
1023
1023
725
376
199
105
57
606
1023
1023
714
371
196
104
56
621
1023
1023
703
365
193
103
55
632
1023
1023
686
356
188
100
54
639
1023
1023
664
346
183
97
52
646
1023
1023
646
336
178
94
51
663
1023
1023
640
333
176
94
51
687
1023
1023
646
336
178
95
51
719
1023
1023
659
343
181
96
57
752
1023
1023
682
355
188
100
74
794
1023
1023
713
371
196
104
100
832
1023
1023
741
386
204
109
129
863
1023
1023
761
396
209
112
159
890
1023
1023
775
403
213
114
187
911
1023
1023
780
406
215
114
214
929
1023
1023
782
407
215
115
245
948
1023
1023
785
408
216
115
275
965
1023
1023
787
409
217
115
309
982
1023
1023
785
408
216
115
338
996
1023
1023
783
407
216
115
368
1012
1023
1023
781
407
215
115
395
1023
1023
1023
776
404
214
114
416
1023
1023
1023
765
399
211
113
436
1023
1023
1023
754
393
208
111
454
1023
1023
1023
744
388
206
110
468
1023
1023
1023
725
378
201
107
480
1023
1023
1023
708
370
196
105
487
1023
1023
1023
684
358
190
101
491
1023
1023
1023
661
346
184
98
494
1023
1023
1023
637
334
177
95
500
1023
1023
1023
617
324
172
92
508
1023
1023
1023
598
314
167
89
517
1023
1023
1023
582
306
162
87
522
1023
1023
1023
560
294
156
83
523
1023
1023
1023
537
283
150
80
527
1023
1023
1002
514
271
144
77
525
1023
1023
958
492
259
138
74
517
1023
1023
896
463
243
130
69
501
1023
1023
831
430
227
121
64
477
1023
1023
763
396
209
111
59
450
1023
1023
702
365
192
102
55
432
1023
1023
651
338
178
95
51
420
1023
1023
611
318
168
89
48
415
1023
1023
582
303
160
85
46
414
1023
1023
555
290
153
81
44
412
1023
1023
529
276
146
77
42
407
1023
987
501
262
138
73
39
400
1023
932
472
247
130
69
37
389
1020
872
443
231
122
65
35
377
1014
815
415
217
114
61
33
372
1010
771
393
205
108
58
31
378
1008
736
376
197
104
55
30
389
1008
715
365
191
101
53
29
400
1007
694
354
186
98
52
28
402
996
660
338
177
93
50
27
402
977
621
318
167
88
47
25
392
945
575
295
155
81
43
23
369
892
517
266
139
73
39
21
330
808
444
228
119
63
33
18
278
679
357
183
96
50
27
14
204
467
239
122
63
33
17
10
167
375
282
185
99
95
167
180
177
224
303
414
521
594
660
659
439
395
584
760
914
1009
1023
1023
673
548
812
1023
1023
1023
1023
1023
884
722
1023
1023
1023
1023
1023
1023
1000
809
1023
1023
1023
1023
1023
1023
1023
834
1023
1023
1023
1023
1023
1023
1023
948
1023
1023
1023
1023
1023
1023
1023
978
1023
1023
1023
1023
1023
1023
1023
1023
1023
1023
1023
1023
1023
1023
1023
1023
1023
1023
1023
1023
1023
1023
1023
1023
1023
1023
1023
1023
1023
1023
1023
1023
1023
1023
1023
1023
1023
1023
1023
1023
1023
1023
1023
1023
1023
1023
1023
1023
1023
1023
1023
1023
1023
1023
1023
1023
1023
1023
1023
1023
1023
1023
1023
1023
1023
1023
1023
1023
1023
1023
1023
1023
1023
1023
1023
1023
1023
1023
1023
1023
1023
1023
1023
1023
1023
1023
938
1023
1023
1023
1023
1023
1023
1023
918
1023
1023
1023
1023
1023
1023
1023
902
1023
1023
1023
1023
1023
1023
1023
876
1023
1023
1023
1023
1023
1023
1023
868
1023
1023
1023
1023
1023
1023
1023
829
1009
1023
1023
1023
1023
1023
1023
832
1023
1023
1023
1023
1023
1023
1023
795
1011
1023
1023
1023
1023
1023
1023
777
979
1023
1023
1023
1023
1023
1023
757
924
1023
1023
1023
1023
1023
1023
719
914
1023
1023
1023
1023
1023
1023
697
950
1023
1023
1023
1023
1023
1023
806
1023
1023
1023
1023
1023
1023
1023
603
761
1023
1023
1023
1023
1023
1023
622
835
1023
1023
1023
1023
1023
1023
622
814
1023
1023
1023
1023
1023
1023
595
781
1023
1023
1023
1023
1023
1023
939
1023
1023
1023
1023
1023
1023
1023
1023
1023
1023
1023
1023
1023
1023
1023
1023
1023
1023
1023
1023
1023
1023
1023
1023
1023
1009
892
850
846
775
893
1023
1022
819
709
645
614
561
627
925
798
666
582
541
523
494
342
327
421
526
605
635
669
649
340
180
219
486
705
824
869
851
464
240
321
605
822
946
999
974
534
278
407
706
886
971
1001
936
493
257
350
629
856
964
1000
920
887
991
937
904
851
844
837
701
1008
1023
901
650
519
491
477
344
871
1023
695
360
190
102
55
33
689
941
502
261
137
73
39
22
591
743
373
194
102
54
29
16
442
477
241
125
65
34
19
11
100
64
32
16
9
5
3
2
2
1
1
1
1
1
1
1
1
1
1
1
1
1
1
1
1
1
1
1
1
3
25
46
26
19
42
63
77
127
172
165
103
118
173
202
229
231
201
164
82
67
146
226
268
275
291
218
110
56
91
274
436
507
529
560
1023
1023
722
375
198
105
56
325
988
1023
546
285
151
80
43
142
879
976
492
257
136
72
39
106
849
910
459
239
126
67
36
90
834
814
412
215
113
60
32
39
762
587
299
156
82
43
23
13
7
5
3
2
2
1
1
1
1
1
1
1
1
1
1
1
1
1
1
1
1
1
1
1
1
1
1
1
1
1
1
1
1
1
1
1
1
1
0
0
1
1
1
1
1
1
1
1
1
1
1
1
0
1
22
493
1023
983
500
262
139
74
40
561
1023
1023
559
292
155
82
44
531
1023
1023
568
297
157
84
45
548
1023
1023
548
287
152
81
43
511
1023
956
485
254
134
72
39
420
1023
755
386
202
107
57
31
181
751
411
211
111
58
31
17
10
6
4
2
2
1
1
1
1
1
1
1
1
1
1
1
1
1
1
1
1
1
1
1
1
1
1
1
1
1
1
1
1
1
1
1
1
1
1
1
326
823
483
248
130
68
36
20
693
1023
879
449
236
125
67
36
710
1023
954
485
255
135
72
43
738
1023
954
486
256
135
72
40
715
1023
847
434
228
121
64
35
635
1023
662
341
179
95
51
28
382
637
322
166
87
46
24
14
8
5
3
2
2
1
1
1
1
1
1
1
1
1
1
1
1
1
1
1
1
0
1
1
1
1
1
1
1
0
1
1
1
1
1
1
4
36
81
136
92
101
178
229
247
257
272
244
122
62
111
252
335
383
427
447
1020
1023
983
584
347
222
162
362
1008
1023
849
437
231
123
65
169
901
1023
788
407
214
114
61
141
880
1023
711
367
194
103
55
66
806
1015
542
281
148
78
42
23
558
511
259
134
70
37
20
11
7
4
3
2
1
1
1
1
1
1
1
1
1
1
1
1
1
1
1
1
1
1
12
56
37
95
152
196
243
302
358
357
354
396
423
446
442
448
492
538
548
569
574
626
658
666
684
660
486
535
678
763
799
805
820
657
335
376
626
851
972
966
1007
947
1023
1023
1023
1023
984
919
903
1023
1023
1023
1023
806
613
518
470
753
1023
1023
780
405
215
115
62
392
1020
1008
538
280
148
79
42
166
882
763
396
206
109
57
31
17
10
6
70
175
249
286
313
193
97
119
288
441
543
612
664
524
268
297
460
623
729
794
829
784
675
725
802
871
909
931
949
926
909
957
973
959
959
979
1009
1022
1011
1017
1012
1010
1019
1007
982
1012
1021
1023
1023
1023
1023
1023
1023
1023
915
954
993
1023
1023
1023
1023
810
476
654
894
1023
1023
1023
1023
798
501
742
1023
1023
1023
1023
1023
1023
1023
1023
1023
1023
1023
1023
1023
1023
1023
1023
1023
1023
1023
989
889
1016
1023
1023
1023
993
914
863
827
687
731
808
899
976
1023
1023
1023
618
359
573
883
1023
1023
1023
1023
790
495
737
1006
1023
1023
1023
1023
915
674
880
1023
1023
1023
1023
1023
1023
1023
1023
1023
1023
1023
1023
1023
1023
1023
1023
1023
1023
1023
1023
1023
1023
1023
1023
1023
1023
1006
1006
1007
995
1023
1023
1023
1023
1023
1023
1023
1023
1019
1023
1023
1023
1023
1023
1023
1015
972
975
1015
1023
1014
1004
1022
970
946
999
1023
1023
1023
1023
1023
933
891
939
988
1023
1016
976
979
898
888
935
966
990
983
966
961
847
873
957
1018
1023
1023
1023
847
458
441
701
926
1023
1023
1023
1018
525
465
819
1023
1023
1023
1023
1023
583
559
960
1023
1023
1023
1023
1023
668
691
1023
1023
1023
1023
1023
1023
801
824
1023
1023
1023
1023
1023
1023
907
953
1023
1023
1023
1023
1023
1023
741
772
1023
1023
1023
1023
1023
1023
600
610
845
1014
1023
1023
1023
983
504
495
743
929
1023
1023
1023
869
443
475
765
959
1023
1023
1023
1023
1023
1023
1023
1023
940
911
904
961
1023
1023
1023
873
743
675
665
787
1023
1023
909
627
456
379
377
589
1023
1023
684
380
217
164
157
445
1023
947
516
269
143
77
42
369
1004
842
431
225
119
64
34
353
987
733
374
196
104
55
30
334
958
634
325
170
90
48
26
314
936
584
300
157
83
44
24
308
919
560
288
151
80
42
23
302
901
538
276
145
76
41
22
316
901
533
274
144
76
40
22
353
922
545
280
147
77
41
22
381
934
550
283
148
78
42
23
410
944
554
285
150
79
42
23
437
955
557
287
151
79
42
23
463
964
560
288
152
80
42
23
489
974
563
290
152
80
43
23
512
979
562
290
152
80
43
23
537
989
566
291
153
81
43
23
562
997
568
293
154
81
43
23
584
1003
568
293
154
81
43
24
604
1006
567
292
154
81
43
23
621
1006
563
291
153
81
43
23
643
1010
563
290
153
81
43
23
657
1006
556
287
151
80
43
23
674
1005
552
285
150
79
42
23
688
999
544
281
148
78
42
23
702
990
535
277
146
77
41
24
714
980
525
272
143
76
40
26
728
973
518
268
141
75
40
29
743
969
513
266
140
74
39
35
759
969
512
265
140
74
39
41
774
962
505
262
138
73
39
47
785
949
495
257
136
72
38
54
797
938
487
253
133
70
38
66
814
940
488
253
134
71
38
77
828
933
483
251
132
70
37
89
840
924
477
247
131
69
37
104
854
920
474
246
130
69
37
119
867
912
469
243
129
68
36
135
880
908
466
242
128
68
36
151
891
899
460
239
126
67
36
166
902
883
451
235
124
65
35
185
914
877
448
233
123
65
35
208
927
874
446
232
123
65
35
235
941
875
446
232
123
65
35
265
956
875
447
232
123
65
35
292
970
876
447
233
123
65
35
318
983
872
445
232
122
65
35
350
995
801
408
213
112
60
32
68
647
420
215
112
58
31
17
9
6
4
3
2
2
30
90
51
25
26
118
223
319
420
492
329
168
246
449
591
670
731
749
510
272
400
675
849
914
945
971
717
402
569
832
1001
1023
1023
1023
874
518
686
941
1023
1023
1023
1023
1006
659
849
1023
1023
1023
1023
1023
1023
713
886
1023
1023
1023
1023
1023
1023
760
953
1023
1023
1023
1023
1023
1023
763
940
1023
1023
1023
1023
1023
1023
815
1013
1023
1023
1023
1023
1023
1023
791
995
1023
1023
1023
1023
1023
1023
821
1007
1023
1023
1023
1023
1023
1023
837
1023
1023
1023
1023
1023
1023
1023
798
997
1023
1023
1023
1023
1023
1023
852
1023
1023
1023
1023
1023
1023
1023
852
1023
1023
1023
1023
1023
1023
1023
919
1023
1023
1023
1023
1023
1023
1023
971
1023
1023
1023
1023
1023
1023
1023
997
1023
1023
1023
1023
1023
1023
1023
975
1023
1023
1023
1023
1023
1023
1023
971
1023
1023
1023
1023
1023
1023
1023
949
1023
1023
1023
1023
1023
1023
1023
984
1023
1023
1023
1023
1023
1023
986
928
1023
1023
1023
1023
1023
1023
938
910
1023
1023
1023
1023
1023
1023
969
954
1023
1023
1023
1023
1023
1023
963
958
1023
1023
1023
1023
1023
1023
889
883
997
1023
1023
1023
1023
1023
955
942
999
1023
1023
1023
1023
1023
872
851
939
1003
1023
1023
1023
1023
889
864
952
1018
1023
1023
1023
1023
899
921
975
990
990
1005
1003
969
838
843
933
974
994
1023
1023
1015
863
857
938
981
974
942
952
959
866
893
951
988
983
954
953
938
839
871
928
919
918
941
968
974
859
855
908
939
945
937
956
935
832
840
865
903
912
914
918
902
807
794
826
860
861
854
848
832
771
793
872
905
909
906
915
929
894
991
1023
1023
1023
1023
1023
1023
1023
979
925
864
809
763
710
645
615
680
742
791
816
828
847
819
722
728
799
835
844
829
819
786
716
737
780
784
766
763
792
769
702
730
796
824
849
841
829
805
746
761
763
777
809
825
860
848
770
781
782
763
738
752
805
799
763
815
824
805
808
824
815
755
714
775
799
818
831
828
846
840
786
794
810
831
875
885
853
810
768
785
784
848
898
900
881
855
795
829
899
913
889
889
891
845
785
823
875
905
925
918
888
802
735
818
885
895
894
895
915
864
781
781
781
740
736
760
757
687
655
706
721
696
673
656
637
568
524
565
573
588
595
580
560
495
489
566
610
606
607
615
596
520
483
541
600
631
637
640
650
558
494
506
550
606
654
669
671
598
525
518
545
567
598
682
711
594
587
678
710
706
701
749
813
736
668
706
734
728
709
723
738
662
650
723
750
753
740
764
780
731
730
771
775
774
795
823
874
820
762
764
791
781
768
765
745
668
664
709
695
677
672
656
673
686
701
712
675
657
661
663
655
631
646
664
632
599
574
582
610
606
615
630
642
641
593
589
627
611
649
712
735
736
731
762
800
750
716
757
796
808
827
882
833
432
334
667
905
1023
1023
1023
925
474
344
675
991
1023
1023
1023
1023
649
525
841
1023
1023
1023
1023
1023
951
924
1023
1023
1023
1023
1023
1023
1023
1023
1023
1023
1023
1023
992
924
826
752
700
621
554
532
527
519
535
548
542
549
519
477
446
434
417
395
372
374
375
378
393
406
404
406
390
380
383
418
472
500
525
545
486
431
394
353
362
406
447
466
468
466
445
416
402
399
413
451
487
496
541
546
495
473
469
474
486
493
524
534
531
554
612
604
552
530
501
471
486
516
524
514
510
496
461
421
426
439
441
440
437
410
397
406
407
418
460
476
463
449
407
369
371
399
415
453
500
537
499
378
306
307
347
383
413
421
416
422
420
394
395
431
471
486
467
436
421
450
479
506
528
505
462
439
437
448
452
453
466
478
472
452
454
463
473
479
463
448
466
432
399
417
436
455
476
490
504
523
557
650
747
811
858
891
906
933
890
798
718
649
588
525
520
509
475
485
485
520
533
504
492
498
530
518
541
589
578
558
568
587
596
579
559
558
549
564
596
592
591
601
631
690
732
749
738
700
662
661
702
728
743
727
705
692
686
688
711
668
634
620
625
624
634
655
653
661
690
700
686
680
678
678
671
711
716
698
687
703
716
708
728
732
740
706
661
652
665
691
734
746
713
676
650
650
682
677
686
716
723
710
697
694
715
712
735
761
755
720
695
686
693
694
729
750
738
717
708
693
650
628
643
665
645
631
625
610
593
602
566
543
535
527
541
568
574
553
524
472
469
493
487
484
464
482
497
510
532
498
471
484
525
536
510
474
446
484
537
538
487
493
502
506
533
536
512
489
487
526
540
506
510
530
519
501
521
545
551
541
533
553
584
552
527
522
545
566
558
527
504
511
532
548
543
536
519
503
488
505
517
529
544
521
517
504
484
514
528
535
545
575
593
569
523
472
445
481
525
554
549
538
546
531
506
500
513
518
513
504
502
507
525
526
526
556
562
536
501
473
471
508
528
513
495
487
485
487
468
486
498
530
563
562
534
499
482
482
488
481
467
465
462
456
444
416
423
445
475
464
469
492
520
516
500
506
512
486
453
427
450
498
540
533
526
516
517
523
517
520
527
513
506
495
459
437
443
424
444
471
504
477
467
476
491
490
476
490
504
502
500
488
488
478
472
481
462
440
443
468
487
508
524
474
445
445
442
432
442
476
495
488
494
492
460
431
451
476
480
476
447
416
413
420
421
433
448
443
447
419
385
393
433
472
444
444
454
448
435
437
456
465
465
477
475
460
433
406
412
452
475
460
448
445
435
437
449
473
466
460
467
467
452
430
416
429
444
434
402
421
451
466
459
431
442
457
453
445
435
451
464
458
426
386
418
427
432
461
473
471
486
503
464
436
426
435
446
443
444
461
474
475
477
473
484
501
519
492
467
475
477
461
453
469
503
530
509
469
454
468
463
478
491
476
452
431
431
411
428
460
479
487
504
516
542
584
627
700
756
806
859
855
811
758
669
608
544
467
400
351
323
334
358
409
464
513
524
480
458
422
391
403
435
445
458
460
454
439
440
470
490
484
469
451
449
454
465
474
512
539
530
490
463
450
487
533
554
508
494
506
496
502
530
520
506
537
550
524
479
478
495
477
460
497
545
584
597
560
557
587
558
522
494
471
486
529
524
526
528
535
544
543
529
538
572
590
584
551
555
586
597
602
608
614
627
620
596
585
621
641
660
664
669
651
660
659
636
609
609
604
600
613
620
595
580
583
608
624
628
610
600
561
516
483
456
469
505
489
450
432
428
401
419
443
420
401
390
403
391
373
365
388
428
400
366
353
337
339
338
367
420
413
406
395
382
385
434
481
469
433
422
419
438
476
467
431
406
396
394
391
412
430
439
452
485
506
535
517
467
462
479
489
499
490
461
456
432
495
562
557
524
491
464
447
437
448
494
493
481
483
473
461
484
505
543
535
493
461
443
453
475
488
522
560
590
572
496
432
428
465
471
481
495
465
432
424
456
430
416
477
538
538
514
479
470
488
501
513
510
526
517
479
437
420
459
486
472
457
460
502
517
508
518
514
496
488
459
426
422
463
502
508
483
478
489
516
497
475
480
503
514
493
447
448
479
493
515
527
524
511
520
510
526
503
501
531
544
536
512
481
471
499
524
512
486
484
483
475
474
485
514
532
550
520
490
494
519
563
590
611
571
504
489
488
485
492
501
536
565
567
523
486
488
503
500
516
549
545
524
516
512
526
546
541
538
528
523
559
590
580
580
575
565
538
541
526
541
560
581
585
578
578
545
521
536
552
539
548
567
559
524
509
508
530
575
578
537
505
499
520
535
553
600
607
582
542
507
484
501
525
567
576
579
564
526
493
504
515
543
610
595
540
497
500
501
534
550
558
549
557
551
546
585
612
604
587
570
547
526
534
540
575
577
550
555
565
570
555
581
608
588
573
555
544
513
503
525
531
564
569
548
556
575
576
580
574
584
596
560
542
540
550
525
522
545
534
507
502
505
501
508
508
510
533
544
551
553
565
595
617
630
692
757
800
847
889
908
853
763
697
605
506
443
444
417
402
437
471
483
480
469
493
506
529
555
524
504
517
540
526
495
479
485
481
489
461
458
499
543
571
575
557
529
510
506
532
545
540
550
576
573
561
534
515
540
585
620
586
557
559
559
568
591
588
592
588
568
527
515
534
562
581
584
566
570
591
600
588
587
629
662
657
637
612
571
559
600
633
657
674
644
622
580
582
606
616
618
641
668
674
650
632
634
669
712
709
692
691
717
693
656
641
666
677
658
643
644
644
624
633
628
612
618
582
550
556
574
582
564
560
528
489
460
465
472
484
470
479
463
411
371
374
405
431
450
444
455
457
444
458
468
477
464
433
406
361
363
382
406
425
446
454
452
434
406
422
448
477
488
499
470
459
455
463
480
509
511
484
459
455
434
421
444
489
518
542
555
528
503
489
495
537
530
504
463
453
441
456
310
175
273
412
499
511
513
706
1023
1023
1023
629
328
174
94
551
1023
1023
1023
1023
629
329
384
1023
1023
1023
1023
1023
868
452
899
1023
1023
1023
1023
1023
918
501
1018
1023
1023
1023
1023
1023
831
434
750
1023
1023
1023
1023
1023
737
386
498
1023
1023
1023
1023
1023
684
358
380
1023
1023
1023
1023
1023
643
337
322
986
1023
1023
1023
1023
596
313
260
940
1023
1023
1023
1023
545
287
198
879
1023
1023
1023
945
490
259
145
789
1023
1023
1023
817
426
225
121
668
1023
1023
1023
682
357
189
102
522
1023
1023
1023
539
283
151
81
335
994
1023
785
405
213
114
61
151
884
1023
555
288
152
81
44
27
709
603
306
159
84
45
24
14
8
5
3
2
2
1
1
1
1
1
1
1
1
1
1
1
1
1
1
1
1
1
1
1
1
1
1
1
1
1
1
1
1
1
1
0
1
1
1
1
1
1
1
1
1
1
1
1
1
1
0
1
1
1
1
1
1
1
1
0
1
1
1
1
1
1
1
1
1
0
1
1
0
1
1
1
1
1
1
1
1
0
1
0
0
1
1
0
1
1
1
0
1
1
1
1
1
1
0
1
1
0
1
1
1
1
0
0
0
1
1
30
83
149
201
222
249
291
339
389
444
505
548
590
666
754
854
956
1023
1023
1023
1023
1023
1023
970
905
916
888
848
827
851
905
956
1013
1023
1023
1023
1023
1023
1023
1023
1023
1023
1023
1023
1023
1023
1023
1023
1023
1023
1023
1023
1023
1023
1023
1023
1023
1023
1023
1023
1023
1023
1023
1023
1023
1023
1023
1023
1023
1023
1023
1023
1023
1023
1023
1023
1023
1023
1023
1023
1023
1023
1023
1023
1023
1023
1023
1023
1023
1023
1023
1023
1023
1023
1023
1023
1023
1023
1023
1023
1023
1023
1023
1023
1023
1023
1023
1023
1023
1023
1023
1023
1023
1023
1023
1023
1023
1023
1023
1023
1023
1023
1023
1023
1023
1023
1023
1023
1023
1023
1023
1023
1023
1023
1023
1023
1023
1023
1023
1023
1023
1023
1023
1023
1023
1023
1023
1023
1023
1023
1023
1023
1023
1023
1023
1023
1023
1023
1012
1023
1023
1023
1023
1023
1023
1023
1023
1023
1023
1023
1023
1023
1023
1003
1023
1023
1023
1023
1023
1023
1008
1023
1023
1023
1023
1023
1023
1023
1015
1022
1023
1023
1019
1023
1023
1023
1023
1008
1009
1018
1013
1023
1023
1023
1023
1015
992
977
989
1014
1023
1023
1023
1000
980
1008
1008
1007
1008
1023
1010
992
1007
996
982
967
961
969
969
943
941
968
989
998
982
963
928
905
922
939
941
913
908
900
886
889
915
924
920
928
916
882
847
862
886
894
900
881
891
899
881
835
827
829
856
873
862
838
832
833
837
876
902
897
856
816
828
842
849
860
845
836
821
808
788
771
772
773
795
812
802
789
767
802
821
795
788
797
795
779
748
758
823
813
791
790
797
803
781
780
791
788
787
810
808
782
761
743
735
736
750
775
795
797
781
776
761
771
796
798
762
735
727
740
754
761
778
776
772
737
688
679
682
701
711
705
715
702
705
696
681
697
698
694
701
704
687
659
685
694
711
703
689
705
725
738
714
681
683
689
684
692
693
677
673
688
695
689
716
699
674
668
667
653
647
669
667
660
654
654
673
673
616
644
663
665
640
649
651
436
230
215
426
572
649
711
737
912
1023
1023
710
454
314
252
228
820
1023
928
473
248
132
72
47
738
1023
998
506
266
141
76
41
680
1023
977
496
260
138
74
41
703
1023
973
494
259
138
74
40
695
1023
902
460
241
128
69
37
676
1023
824
422
222
118
63
34
657
1023
752
386
203
108
58
31
625
1023
669
344
181
96
52
28
589
1023
585
301
159
84
45
25
542
928
486
251
132
70
38
21
485
764
384
199
105
55
30
16
313
399
201
104
54
28
15
9
5
3
2
2
1
1
1
1
1
1
1
1
1
1
1
1
1
1
1
1
1
1
1
1
1
1
1
0
1
1
1
1
1
1
1
1
1
1
1
1
0
1
1
1
1
1
1
1
1
1
1
0
1
1
1
1
1
1
1
0
1
1
6
56
140
178
201
217
229
235
251
271
309
359
388
404
437
461
479
490
527
536
557
561
549
552
576
583
593
578
559
561
569
549
550
568
584
563
564
589
581
579
591
599
600
595
618
658
660
648
654
649
648
669
660
638
642
655
663
684
698
720
736
732
745
757
765
769
776
803
801
790
801
795
821
842
855
877
857
803
774
766
809
822
843
871
878
872
889
884
874
864
893
903
890
880
855
861
877
891
908
930
938
903
862
850
868
876
858
865
890
891
855
844
858
880
906
910
925
918
889
878
874
882
898
919
917
914
875
849
850
865
883
898
899
879
869
849
832
860
885
894
901
898
883
883
891
886
888
917
940
935
919
884
874
878
881
868
843
820
799
819
860
863
860
848
818
802
786
775
794
829
855
895
921
891
835
808
815
831
850
863
833
794
786
771
776
811
842
840
824
829
829
810
788
786
782
746
758
801
793
779
795
811
818
795
785
782
795
809
798
797
799
804
774
740
709
730
752
783
794
771
764
741
731
732
762
807
832
784
756
761
754
737
742
765
767
770
763
723
724
734
742
777
771
731
685
694
707
709
725
752
759
746
744
756
769
754
750
731
713
712
708
702
695
699
736
743
739
711
680
689
715
720
720
735
733
711
693
702
685
644
657
685
703
717
715
670
644
631
635
670
703
744
756
727
676
679
687
685
690
703
694
671
655
661
666
683
708
704
679
656
637
625
630
656
652
663
684
664
675
685
693
698
712
707
663
655
637
594
607
636
652
669
670
666
653
641
611
604
633
656
656
646
632
626
640
701
778
841
923
985
993
1019
1023
976
919
836
750
656
533
457
443
439
453
475
486
515
530
555
574
597
622
657
651
625
619
611
580
599
616
631
640
618
624
626
608
608
590
576
585
618
608
602
629
649
654
662
661
632
619
610
603
626
665
675
666
633
600
591
593
628
666
663
633
600
605
633
635
641
633
624
656
665
659
642
651
698
716
673
651
661
688
703
681
670
680
705
705
709
702
705
712
726
723
722
713
716
738
764
765
797
789
792
781
748
721
737
782
806
775
738
727
697
687
686
692
690
704
705
680
660
650
623
634
655
633
602
572
545
504
503
529
500
482
473
485
466
452
461
467
470
485
499
487
454
431
439
426
430
431
429
441
436
448
457
496
525
521
471
439
433
447
459
480
506
503
500
505
521
520
510
487
512
516
526
524
475
464
497
524
538
527
525
541
523
488
482
499
531
536
526
492
462
485
507
513
540
583
606
578
555
550
534
529
525
535
547
539
519
514
516
539
561
571
551
524
528
522
528
560
574
562
529
528
530
526
544
542
544
524
476
463
502
532
522
524
536
496
512
545
556
545
550
559
550
554
562
546
537
519
500
504
553
583
577
565
526
466
456
506
532
536
544
524
536
510
479
