555
498
448
430
457
514
565
583
556
500
451
434
462
496
431
390
391
429
475
497
473
410
342
300
298
335
379
400
378
318
253
213
214
256
309
337
322
272
216
183
194
242
298
331
320
274
221
194
209
263
324
360
353
309
258
232
249
302
361
397
388
342
291
264
280
334
393
426
416
370
319
292
308
362
422
457
447
400
348
321
339
393
452
486
477
431
380
353
369
422
480
514
504
457
405
378
395
448
507
539
527
477
422
395
412
466
525
558
545
494
441
414
432
487
547
580
566
515
460
433
451
506
566
598
585
536
482
455
473
528
587
617
602
552
498
471
489
545
602
630
614
564
509
481
499
552
609
640
626
576
521
492
510
564
619
647
631
580
525
497
513
565
621
650
634
583
528
500
519
573
629
658
642
590
534
504
521
575
633
664
649
598
544
517
536
589
645
673
658
609
556
531
550
604
662
692
677
627
575
550
570
626
685
717
705
657
608
584
604
659
716
745
729
677
622
594
610
662
716
741
722
669
613
583
598
650
706
734
717
664
609
584
604
658
715
744
729
680
627
600
619
675
732
761
747
699
648
624
645
702
759
786
770
720
668
642
660
713
768
795
778
726
673
647
665
718
772
798
780
728
673
647
666
718
773
799
781
729
674
648
667
718
771
796
777
722
665
634
650
700
751
773
750
696
639
610
625
675
727
750
729
674
617
589
605
655
707
730
709
653
594
564
579
627
678
701
678
621
563
533
548
597
648
671
648
590
529
498
513
563
615
638
616
560
502
473
487
536
586
609
589
535
478
450
466
515
568
594
576
524
467
436
450
497
551
581
568
518
463
431
441
488
542
572
559
510
457
426
435
480
532
565
571
563
548
529
510
496
492
496
505
511
510
499
485
473
470
476
487
494
495
486
473
463
459
466
479
488
489
481
468
457
452
456
466
475
478
470
457
447
444
454
471
485
491
483
469
456
449
455
468
478
479
467
450
435
430
438
454
471
480
475
463
453
451
461
479
494
498
488
470
453
446
451
465
478
482
474
458
446
443
453
473
492
501
495
481
466
459
467
483
496
502
493
477
462
456
465
485
505
516
510
495
482
477
486
504
522
531
524
508
493
487
498
519
539
550
546
531
519
516
529
552
574
587
584
572
559
554
566
589
612
627
627
618
608
606
621
647
674
694
699
692
682
680
694
720
749
772
779
773
761
756
770
799
833
866
884
885
877
872
883
910
952
1003
1023
1023
1023
1023
1023
1023
1023
1023
1023
1023
1023
1023
1023
1023
1023
1023
1023
1023
1023
1023
1023
1023
1023
1023
1023
1023
1023
1023
1023
1023
1023
1023
1023
1023
1023
1023
1023
1023
1023
1023
1023
1023
1023
1023
1023
1023
1023
1023
1023
1023
1023
1023
1023
1023
1023
1023
1023
1023
1023
1023
1023
1023
1023
1023
1023
1023
1023
1023
1023
1023
1023
1023
1023
1023
1023
1023
1023
1023
1023
1023
1023
1023
1023
1023
1023
1023
1023
1023
1023
1023
1023
1023
1023
1023
1023
1023
1023
1023
1023
1023
1023
1023
1023
1023
1023
1023
1023
1023
1023
1023
1023
1023
1023
1023
1023
1023
1023
1023
1023
1023
1023
1023
1023
1023
1023
1023
1023
1023
1023
1023
1023
1023
1023
1023
1023
1023
1023
1023
1023
1023
1023
1023
1023
1023
1023
1023
1023
1023
1023
1023
1023
1023
1023
1023
1023
1023
1023
1023
1023
1023
1023
1023
1023
1023
1023
1023
1023
1023
1023
1023
1023
1023
1023
1023
1023
1023
1023
1023
1023
1023
1023
1023
1023
1023
1023
1023
1023
1023
1023
1023
1023
1023
1023
1023
1023
1023
1023
1023
1023
1023
1023
1023
1023
1023
1023
1023
1023
1023
1023
1023
1023
1023
1023
1023
1023
1023
1023
1023
1023
1023
1023
1023
1023
1023
1023
1023
1023
1023
1023
1023
1023
1023
1023
1023
1023
1023
1023
1023
1023
1023
1023
1023
1023
1023
1023
1023
1023
1023
1023
1023
1023
1023
1023
1023
1023
1023
1023
1023
1023
1023
1023
1023
1023
1023
1023
1023
1023
1023
1023
1023
1023
1023
1023
1023
1023
1023
1023
1023
1023
1023
1023
1023
1023
1023
1023
909
652
408
222
120
66
36
21
12
8
5
3
2
2
2
2
1
1
1
1
1
1
1
1
1
1
1
1
1
1
1
1
1
1
1
1
1
1
1
1
1
1
1
1
1
1
1
1
1
1
1
1
1
1
1
1
1
1
1
1
1
1
1
1
0
1
1
1
1
1
1
1
1
1
1
1
0
1
1
0
1
1
0
1
0
1
1
1
0
1
0
1
1
1
0
0
0
1
1
1
1
1
0
1
1
1
1
1
1
1
0
0
1
1
0
1
1
1
1
0
0
1
1
0
1
0
1
1
1
0
0
1
0
1
0
0
0
1
0
0
0
0
1
1
1
1
0
0
1
1
1
1
0
0
1
0
1
0
1
0
1
0
0
0
0
0
1
1
0
1
1
1
0
1
1
1
1
1
0
1
0
1
1
1
0
0
1
1
1
1
1
0
1
0
1
1
0
1
1
0
0
0
0
1
0
0
1
0
1
1
1
1
1
1
0
1
1
0
0
0
1
0
0
0
1
0
1
1
1
1
1
1
1
0
0
0
1
1
0
1
1
1
1
0
1
0
1
1
1
1
1
0
1
0
1
1
1
1
1
1
1
1
1
1
1
9
11
6
3
2
1
2
18
38
44
33
17
9
9
29
55
74
78
66
48
36
38
58
84
102
106
92
73
62
64
83
110
129
134
122
104
92
94
114
138
156
158
144
125
114
116
135
159
176
179
164
145
133
136
155
178
194
197
183
163
149
149
168
193
211
214
200
181
168
171
191
215
233
236
222
203
191
193
211
235
252
254
238
220
208
211
230
252
270
272
259
241
228
230
248
272
289
291
276
257
244
247
266
290
308
310
295
276
262
265
282
305
322
323
307
288
277
280
299
321
338
339
324
305
295
298
316
338
353
355
341
323
311
314
332
353
367
365
350
332
321
326
345
367
381
383
370
353
342
345
365
388
403
404
388
371
360
365
386
409
424
425
412
394
385
390
410
431
443
442
427
409
400
406
426
444
456
454
440
426
422
433
457
480
494
496
485
474
471
481
502
522
533
530
517
504
502
512
529
543
547
540
523
507
501
506
522
535
540
532
515
499
492
498
515
531
540
534
517
502
496
501
517
532
536
527
507
489
482
489
505
520
527
523
508
495
494
505
524
542
550
545
530
515
509
517
533
547
549
537
516
498
489
494
509
523
528
521
503
488
483
491
507
523
529
521
504
489
482
488
505
521
526
518
502
487
482
490
508
524
530
521
504
488
483
490
507
523
529
520
504
491
486
494
511
528
534
526
509
494
488
496
514
529
535
528
510
495
489
499
516
530
537
530
514
500
496
502
518
532
539
533
517
503
497
504
520
533
538
532
515
500
494
499
517
532
537
531
513
498
493
501
519
532
537
529
511
494
486
492
507
520
525
517
500
486
479
485
500
516
524
519
505
492
486
492
509
527
536
530
513
497
492
498
516
532
538
533
517
502
497
505
524
541
549
544
529
515
512
524
543
559
566
559
542
526
516
522
537
551
558
551
535
520
512
519
536
550
558
554
541
528
524
533
552
570
581
577
563
546
537
544
560
575
584
579
565
553
550
561
581
598
607
600
583
565
556
560
573
583
584
571
549
530
522
528
543
557
565
560
545
533
528
538
557
575
585
579
562
545
535
541
557
574
585
580
564
550
543
554
575
597
610
606
592
578
573
582
603
624
636
633
619
605
599
610
633
658
674
673
660
647
642
655
683
710
727
728
714
700
695
710
740
771
793
797
786
772
769
785
817
850
873
876
861
840
830
839
866
893
909
903
877
848
828
828
846
869
881
868
834
793
760
748
755
767
768
747
709
668
634
623
631
644
651
637
607
576
555
554
573
599
618
621
611
601
603
624
660
701
736
758
771
783
804
838
885
934
978
1011
1023
1023
1023
1023
1023
1023
1023
1023
1023
1023
1023
1023
1023
1023
1023
1023
1023
1023
1023
1023
1023
1023
1023
1023
1023
1023
1023
1023
1023
1023
1023
1023
1023
1023
1023
1023
1023
1023
1023
1023
1023
1023
817
538
1023
1023
1023
1023
1023
968
503
267
222
916
1023
1023
1023
549
287
153
83
343
1001
1023
571
295
155
83
45
25
14
9
5
4
3
2
2
1
1
1
1
1
1
1
1
1
1
1
1
1
1
1
1
1
1
1
1
1
1
1
1
1
1
0
1
1
1
1
1
1
1
1
1
1
1
1
1
1
1
1
1
1
1
1
1
0
1
0
1
1
1
1
0
1
1
0
1
1
1
0
1
598
1023
1023
1023
1023
719
879
1023
1023
1023
1023
1023
1023
1023
1023
1023
1023
1023
1023
1023
1023
1023
1023
1023
1023
1023
1023
1023
1023
1023
1023
1023
1023
1023
1023
1023
1023
1023
1023
1023
1023
1023
1023
1023
1023
1023
1023
1023
1023
1023
1023
1023
1023
1023
1023
1023
1023
1023
1023
1023
1023
1023
1023
1023
1023
1023
1023
1023
1023
1023
1023
1023
1023
1023
1023
1023
1023
1023
1023
1023
1023
1023
1023
1023
1023
1023
1023
1023
1023
1023
1023
1023
1023
1023
1023
1023
1023
1023
1023
1023
1023
1023
1023
1023
1023
1023
1023
1023
1023
1023
1023
1023
1023
1023
1023
1023
1023
1023
1023
1023
1023
1023
1023
1023
1023
1023
1023
1023
1023
1023
1023
1023
1023
1023
1023
1023
1023
1023
1023
1023
1023
1023
1023
1023
1023
1023
1023
1023
1023
1023
1023
1023
1023
1023
1023
1023
1023
1023
1023
1023
1023
1023
1023
1023
1023
840
797
877
977
1023
977
816
561
322
284
399
533
604
568
376
195
105
57
32
106
240
228
113
58
30
17
14
490
1023
1023
721
373
196
105
56
31
17
616
1023
1023
1023
1023
1023
1023
1023
1023
1023
1023
1023
1023
1023
1023
1023
1023
1023
1023
1023
1023
1023
1023
1023
1023
1023
1023
1023
1023
1023
1023
1023
1023
1023
1023
1023
1023
1023
1023
1023
1023
1023
1023
1023
1023
1023
1023
1023
1023
1023
1023
1023
1023
1023
1023
1023
1023
1023
1023
1023
1023
1023
1023
1023
1023
1023
1023
1023
1023
1023
1023
1023
1023
1023
1023
1023
1023
1023
1023
1023
1023
1023
1023
1023
1023
921
794
652
486
292
157
85
47
26
15
9
6
4
3
2
2
1
1
1
1
1
1
1
1
1
1
1
1
1
1
1
1
1
1
1
1
1
1
1
1
1
1
1
1
1
1
1
1
1
1
1
1
1
1
1
1
1
1
1
1
1
1
1
1
1
1
1
1
1
1
0
1
1
1
0
1
1
1
1
0
1
1
0
1
0
0
0
1
1
1
0
1
0
1
0
0
1
0
0
1
0
1
1
1
1
0
0
1
1
1
0
1
1
1
0
0
0
0
1
0
0
1
1
0
1
1
1
1
0
0
1
0
1
0
1
1
1
0
1
0
1
1
1
1
0
1
0
1
1
0
0
1
1
1
0
1
0
1
0
1
0
1
0
0
0
0
0
0
1
1
1
1
1
0
1
0
1
1
1
1
0
0
1
1
0
1
1
0
0
1
0
1
1
0
0
0
0
1
1
1
1
0
0
0
1
1
1
1
0
0
1
1
0
0
1
1
0
1
1
0
0
1
0
1
0
0
1
0
0
1
0
0
0
1
1
0
1
0
1
0
1
1
1
0
0
0
1
1
0
1
0
0
0
1
1
1
1
0
1
1
1
0
1
0
0
0
0
0
0
1
1
1
1
1
1
0
1
0
1
1
0
1
1
0
1
0
1
1
0
1
1
0
1
1
1
1
0
1
0
1
0
0
0
0
0
0
1
0
1
0
0
1
1
1
1
1
1
1
0
0
1
1
1
1
0
1
0
0
1
1
0
0
0
0
1
1
0
0
0
0
1
0
1
0
1
1
0
0
1
1
1
0
1
0
1
1
0
1
0
0
0
1
1
1
0
0
0
1
1
0
0
0
1
0
1
0
1
0
1
0
1
0
1
1
1
0
1
1
1
0
1
0
0
1
0
1
1
1
1
1
0
0
0
0
0
0
1
1
1
0
1
0
0
1
1
0
1
0
1
1
1
1
1
1
1
1
0
1
0
0
0
1
1
0
1
0
1
1
0
1
0
0
1
1
0
1
1
0
0
1
1
1
1
1
0
0
0
1
1
1
1
1
1
1
1
1
1
1
1
35
114
136
171
209
177
101
51
26
13
7
4
2
2
1
1
1
1
1
1
1
1
1
1
1
1
1
1
6
12
6
3
2
1
1
22
65
70
70
64
43
42
79
79
52
62
102
134
97
90
114
120
113
122
130
144
156
182
206
173
166
164
153
138
176
197
187
195
211
210
212
222
210
217
239
270
297
285
275
263
300
321
267
232
203
166
156
177
199
235
265
279
288
292
310
314
299
306
337
348
370
409
405
382
370
379
371
372
367
379
392
352
343
369
373
362
366
372
386
409
399
363
334
319
309
306
297
294
293
294
257
197
175
158
170
192
215
224
233
250
246
256
262
235
233
247
238
239
222
222
246
270
287
273
241
238
263
281
303
328
346
385
363
329
324
319
318
329
356
392
421
410
390
407
460
480
447
445
502
556
526
485
460
438
420
434
457
463
476
490
506
516
528
514
478
458
472
503
472
395
343
330
352
405
471
511
534
550
535
497
473
471
487
496
479
500
506
506
504
522
558
591
615
591
541
526
552
578
602
642
683
685
651
630
603
596
651
668
662
644
658
656
663
686
689
704
737
765
764
754
779
804
819
809
769
737
734
760
785
814
807
805
832
831
845
870
880
867
835
816
802
789
795
818
830
842
864
872
837
805
792
828
863
881
878
877
874
845
833
843
847
825
794
785
799
811
803
808
821
817
832
851
799
746
728
736
747
761
759
763
766
753
705
688
716
758
771
759
751
748
702
646
682
717
730
746
749
751
761
723
685
689
706
705
718
737
758
783
778
729
702
716
722
731
755
774
775
784
798
776
719
698
695
708
723
753
793
799
772
746
728
715
719
733
775
797
788
767
781
768
751
765
796
813
796
785
806
853
915
985
1023
1023
1004
952
929
864
744
671
653
694
737
722
686
688
730
808
893
928
909
899
917
921
937
976
1007
1016
975
914
880
868
895
936
970
977
997
1011
1003
951
881
870
886
875
854
847
860
865
875
847
791
814
883
948
973
931
903
908
889
886
892
896
875
869
864
879
878
875
899
893
838
838
882
935
997
1023
981
889
809
766
741
756
779
774
797
801
764
760
830
877
857
809
788
824
881
902
925
929
932
925
883
829
820
829
840
825
815
827
823
803
785
768
776
818
839
836
814
838
864
861
909
985
983
900
824
756
726
713
718
721
694
666
668
689
706
708
682
663
665
686
723
718
697
739
780
759
721
715
710
712
714
716
712
737
760
742
693
655
637
640
662
714
717
705
700
713
754
792
840
883
871
797
724
688
706
751
789
828
846
832
858
889
839
784
839
880
891
878
847
849
862
909
937
938
935
900
872
839
835
880
910
922
922
909
885
904
913
940
985
996
956
925
952
966
946
917
892
887
878
875
875
887
911
926
899
888
892
893
909
914
903
897
871
829
831
865
907
947
956
934
901
897
902
896
878
827
814
833
853
857
876
910
925
900
883
872
858
868
844
874
900
911
914
919
896
878
847
815
828
849
847
846
843
831
818
830
832
826
838
863
872
864
856
861
874
877
830
778
757
767
786
831
876
845
784
754
737
751
780
787
777
755
732
736
779
812
813
807
789
770
755
752
799
840
840
854
867
861
865
877
880
877
839
842
846
843
835
830
836
837
851
860
873
867
873
891
866
848
851
834
814
798
788
778
779
794
834
878
880
852
845
848
850
856
849
812
781
804
821
811
767
746
800
854
864
838
797
756
779
822
844
835
847
842
827
837
814
778
800
857
854
807
761
717
735
767
778
788
802
828
843
816
757
725
724
693
678
729
792
793
761
736
713
712
763
801
808
818
818
818
854
948
1023
1023
1023
1020
914
801
732
680
666
662
612
538
504
550
572
610
678
714
729
738
751
751
760
755
758
768
760
726
708
681
687
716
719
736
772
804
815
815
813
789
763
764
799
823
791
786
817
801
731
686
694
680
687
704
713
685
692
726
743
747
742
738
725
722
723
739
752
763
788
808
792
774
758
760
771
774
758
767
805
828
838
836
824
818
823
813
795
786
779
778
792
791
800
838
875
877
845
820
823
816
789
753
725
758
808
853
872
886
908
914
899
868
826
830
845
849
864
879
856
821
786
755
748
758
778
764
750
688
654
672
688
689
677
657
631
639
612
578
558
550
583
613
597
624
679
733
750
738
689
641
620
608
620
647
626
618
661
721
721
680
649
657
670
658
656
667
691
678
663
665
673
682
700
726
743
750
732
753
770
734
704
748
781
778
744
714
705
729
735
723
721
735
757
743
731
727
720
745
745
700
695
708
694
700
724
738
735
738
747
766
776
750
716
702
692
720
749
736
729
733
720
722
738
752
758
730
743
761
748
730
741
770
804
818
805
783
769
770
817
871
859
836
812
820
855
876
869
849
833
856
839
788
769
751
738
738
766
821
854
843
830
828
812
774
753
780
812
814
798
773
773
795
821
840
836
836
836
815
814
791
766
739
697
660
659
677
700
721
724
693
663
686
713
694
721
776
782
794
841
856
844
798
741
716
706
687
670
672
657
625
634
691
706
679
696
705
712
745
748
724
721
770
805
809
807
764
699
646
663
725
763
747
715
669
645
646
677
708
725
738
738
754
779
778
758
754
766
748
743
755
764
759
703
681
692
682
694
715
700
679
686
679
683
698
707
716
744
786
809
825
846
864
916
965
983
985
935
837
748
663
574
530
549
560
572
596
619
620
634
631
648
675
707
722
713
712
723
729
724
718
723
732
751
751
793
814
780
727
701
723
746
767
793
804
777
759
759
751
745
748
770
776
784
766
720
718
716
722
711
700
716
697
686
710
709
722
734
753
747
733
754
748
712
693
684
672
661
700
736
727
695
668
643
655
721
756
760
713
663
645
652
652
663
691
726
725
694
702
733
749
742
719
716
709
685
671
693
720
731
751
759
761
759
745
742
780
814
798
759
722
728
731
726
755
749
722
688
647
624
644
666
650
640
641
620
583
560
569
593
607
592
550
545
570
606
604
594
621
663
689
650
590
539
533
536
527
541
574
603
598
560
513
503
536
590
620
612
594
623
681
720
731
691
637
593
602
635
639
622
610
614
597
575
583
620
626
625
630
627
630
653
697
757
765
723
688
685
681
684
676
640
611
614
616
599
594
598
611
617
614
604
620
661
676
679
682
664
657
645
623
645
654
659
709
714
662
637
625
615
606
588
577
604
632
626
655
671
644
607
595
600
622
631
659
676
694
675
632
628
614
615
632
661
651
609
542
538
589
644
646
650
607
561
578
600
584
549
562
679
729
712
680
622
568
542
535
551
572
592
604
604
611
593
577
598
599
562
532
523
538
542
553
597
637
627
608
616
642
659
623
574
574
613
660
669
643
610
553
534
534
549
555
586
597
614
639
622
598
611
642
650
635
597
571
571
568
564
541
536
574
598
619
630
651
648
629
625
605
572
569
617
635
638
645
640
624
636
638
637
630
607
605
599
601
623
627
615
599
587
596
607
612
613
601
600
587
542
512
522
540
560
595
610
607
578
582
607
605
584
616
626
615
605
561
530
550
573
587
592
595
645
699
750
773
799
813
783
729
653
574
502
457
433
414
405
395
394
412
453
526
581
574
571
581
601
617
600
565
595
627
616
585
565
548
548
567
590
566
525
509
518
531
519
505
469
459
496
547
559
542
548
582
605
581
563
563
553
540
515
508
525
519
512
519
526
530
528
527
535
557
600
593
527
499
490
474
490
536
551
551
597
622
611
586
587
568
529
499
501
519
519
524
544
530
531
570
598
588
577
560
545
561
545
548
577
589
571
559
567
597
631
639
609
603
618
645
684
671
622
608
591
529
522
543
551
554
570
589
592
571
544
526
502
473
471
472
445
445
447
462
493
538
567
555
527
475
442
451
506
532
526
483
489
516
497
486
521
550
527
507
500
466
442
453
461
500
546
548
494
477
477
474
515
535
527
473
421
430
469
499
520
533
533
487
489
497
501
513
519
509
495
490
483
461
476
516
501
462
427
457
500
540
587
580
537
515
492
467
474
477
507
556
541
546
573
607
617
610
595
590
594
573
552
547
556
580
605
603
592
599
607
612
584
569
611
641
611
546
493
474
507
553
583
607
620
622
610
597
584
577
580
600
594
552
536
560
574
568
534
536
570
556
530
558
551
530
526
610
668
658
603
538
528
523
536
549
581
607
618
622
588
539
525
546
578
596
615
635
631
603
564
521
492
487
508
547
568
576
582
567
567
584
539
513
521
523
515
520
552
587
578
543
506
496
486
464
463
504
554
573
576
544
475
443
472
518
543
555
555
568
560
536
525
557
586
626
642
606
562
543
539
526
553
595
591
590
618
632
611
631
659
651
586
561
567
568
548
525
536
545
565
581
606
595
529
494
526
569
589
581
549
513
510
494
497
524
551
576
540
525
567
596
595
582
582
609
582
556
557
596
640
617
615
653
719
786
793
771
734
689
619
551
528
481
442
415
390
380
398
433
471
510
545
565
553
532
525
517
556
587
596
568
534
508
485
504
544
565
575
606
595
563
584
610
596
562
527
516
502
529
541
534
529
519
530
550
548
532
526
513
516
542
555
542
496
470
453
494
553
590
602
588
564
540
542
531
498
506
499
490
520
553
603
626
596
572
563
542
517
507
510
517
549
567
570
589
630
674
642
565
530
543
568
594
578
584
620
627
629
635
633
640
619
592
595
606
624
637
623
606
620
625
614
601
597
621
667
648
581
500
446
449
469
465
433
423
462
493
489
477
476
489
488
455
410
388
413
472
480
445
450
477
503
494
460
437
430
452
510
583
614
583
507
463
443
424
431
449
440
461
500
549
555
521
520
519
495
486
499
529
523
496
503
534
533
503
516
532
536
482
467
503
533
517
498
505
500
503
503
490
448
407
429
464
490
485
494
528
565
597
586
536
510
509
510
476
441
430
441
465
469
485
490
513
512
495
481
476
487
542
589
584
543
508
471
444
446
482
510
511
528
528
502
520
508
502
488
515
533
505
481
477
506
537
565
574
556
511
476
491
523
549
569
565
545
519
506
517
531
535
537
563
578
604
622
607
602
588
584
557
517
495
507
522
522
548
574
591
619
627
582
523
505
533
551
551
533
530
529
521
535
602
622
607
581
543
495
450
461
524
563
584
630
629
566
526
534
575
620
652
635
578
548
544
544
575
601
604
626
625
619
591
543
533
528
517
517
529
509
533
587
648
685
686
673
619
561
533
569
617
650
651
637
585
513
484
498
489
492
534
574
572
547
545
535
500
521
566
588
569
533
507
521
537
564
585
598
605
608
608
610
618
626
641
676
741
768
779
750
676
598
550
498
436
372
326
292
270
293
344
381
444
479
509
552
577
575
562
549
571
588
568
547
529
533
563
586
573
524
493
541
628
674
647
614
580
509
485
509
538
559
535
511
489
470
474
490
515
562
589
605
600
579
568
551
542
525
501
538
586
585
570
564
549
565
588
572
563
588
579
564
612
615
613
634
629
591
589
598
610
615
604
615
613
599
639
702
693
679
673
624
593
599
613
617
626
670
690
673
655
655
636
606
636
659
664
658
670
640
576
557
554
572
586
589
598
590
584
599
585
540
501
470
444
435
427
419
463
467
436
439
456
461
422
375
352
398
468
501
484
422
369
356
387
422
430
463
466
483
494
453
439
447
463
479
447
402
376
401
480
541
557
552
492
439
428
470
524
553
515
445
415
442
479
480
493
489
457
449
428
445
482
523
561
580
598
583
550
488
401
411
492
514
534
524
492
469
492
534
525
506
505
474
468
482
509
542
569
600
600
545
514
499
457
443
474
494
488
455
452
478
493
488
480
478
496
479
446
449
472
477
499
509
505
526
519
496
499
501
485
489
474
448
446
436
440
457
482
508
512
491
471
442
417
402
401
441
503
527
499
475
423
375
403
480
506
504
501
478
459
466
487
490
451
441
459
484
504
534
545
549
569
585
554
521
514
495
486
474
466
467
474
487
512
572
589
599
592
560
524
524
542
529
526
518
535
536
532
585
625
639
640
609
524
436
407
435
466
479
512
558
575
555
534
544
542
515
496
508
512
493
494
481
488
519
537
530
534
542
560
544
492
450
453
488
499
491
500
512
525
563
626
711
781
817
804
757
681
596
495
439
366
313
326
337
312
313
380
443
470
479
463
461
460
445
464
512
531
554
554
513
443
417
443
476
475
447
441
466
528
536
525
541
549
525
475
440
465
503
539
575
604
572
540
515
475
477
462
461
448
434
435
478
530
528
507
494
506
516
510
494
471
526
560
576
603
617
598
549
472
438
477
516
547
563
550
517
502
508
548
567
545
526
545
548
537
592
643
636
622
626
617
611
606
615
674
712
659
584
536
501
497
543
611
674
673
635
612
606
612
608
604
576
538
510
488
467
471
481
468
460
465
487
496
458
437
386
343
301
300
354
434
483
489
517
506
455
416
379
379
398
432
419
406
431
433
432
458
475
441
387
382
393
437
503
545
531
534
507
470
454
450
422
401
412
443
467
457
452
438
465
516
549
552
531
508
483
465
463
471
481
492
452
441
473
498
500
529
566
581
556
509
491
488
502
500
484
479
454
413
432
487
538
590
613
570
506
492
485
484
503
543
555
554
550
595
592
552
515
502
495
498
501
486
502
534
532
557
570
573
575
572
580
645
654
571
466
412
425
440
465
522
550
513
469
460
496
549
558
547
566
589
593
549
490
448
438
446
474
489
481
484
485
477
477
521
571
582
587
592
578
537
484
463
429
400
422
468
485
497
519
550
569
577
585
588
524
458
485
500
504
480
480
497
512
522
487
451
432
444
463
486
472
480
503
550
586
598
600
581
518
485
497
500
495
525
527
520
527
542
570
560
552
528
512
471
449
463
452
428
465
491
483
463
462
502
532
539
547
552
559
573
568
556
527
492
456
425
447
472
487
512
535
524
504
501
539
524
495
483
483
500
531
548
584
619
675
718
764
781
745
653
619
567
510
477
447
383
311
280
301
329
368
384
411
450
490
520
517
491
479
487
490
500
518
487
491
527
561
584
577
545
517
506
513
531
555
552
526
532
528
524
489
477
487
495
509
504
490
492
491
474
495
561
622
643
627
567
513
480
466
477
510
554
574
575
581
559
513
491
477
448
454
457
472
515
560
585
588
562
569
608
608
558
522
501
482
502
537
560
594
602
566
563
566
579
592
615
609
559
539
546
574
581
579
565
562
586
604
623
646
667
659
610
565
556
577
587
580
568
529
485
496
521
538
543
518
468
438
427
440
419
368
353
373
371
396
390
387
396
425
443
432
443
455
431
394
393
421
428
455
486
509
503
482
454
396
372
405
439
458
499
508
474
457
449
474
527
557
528
455
432
454
493
494
485
468
451
441
456
456
461
467
478
510
506
467
439
472
508
516
524
498
466
473
477
492
535
552
560
544
512
471
451
475
494
495
496
497
484
476
478
492
491
483
490
485
484
485
513
559
560
522
492
481
484
490
507
514
509
517
510
504
533
585
589
553
504
473
464
457
449
484
534
552
557
535
499
500
533
537
478
498
524
508
502
488
496
507
458
409
411
416
462
480
479
486
483
485
495
515
521
513
477
436
439
483
514
542
533
500
462
471
477
512
525
487
469
454
448
486
553
545
519
524
491
449
410
413
437
498
523
501
512
494
472
461
464
493
537
563
565
527
472
451
468
505
518
481
470
469
475
505
511
505
485
476
500
519
509
532
560
558
529
489
443
436
439
435
443
452
480
527
530
503
486
493
483
451
456
493
517
540
514
467
457
486
489
472
468
466
473
473
502
566
617
625
592
572
610
652
694
729
657
594
557
527
462
398
362
342
318
302
306
364
415
448
483
492
506
515
524
531
528
563
557
501
477
482
488
484
481
472
473
488
518
542
553
566
560
534
511
515
532
540
553
553
538
510
478
465
483
506
518
568
580
562
535
498
467
449
488
527
534
499
474
489
503
509
527
578
601
568
544
537
537
506
483
474
500
540
544
551
580
590
600
577
540
520
508
528
534
529
550
545
529
528
595
635
623
575
530
549
586
593
575
551
552
563
585
604
607
591
578
564
545
525
503
474
476
494
548
594
579
543
495
428
409
412
375
382
409
418
426
403
366
374
409
404
360
336
360
366
343
360
352
339
328
347
383
403
425
445
458
438
434
451
435
412
406
437
436
403
381
375
382
392
400
390
380
395
420
457
448
436
438
438
414
452
505
512
478
468
480
479
455
437
457
470
495
525
525
484
454
478
529
516
487
482
452
425
450
490
491
498
501
453
448
499
543
534
481
470
480
467
458
474
494
496
481
514
546
531
493
481
471
472
457
446
465
511
523
537
562
553
504
472
513
560
532
478
439
463
510
534
530
509
481
472
467
492
508
464
450
493
525
528
554
570
537
519
499
488
492
494
500
534
565
560
545
539
518
510
513
510
504
490
459
455
485
531
551
548
539
531
508
475
475
497
511
560
583
595
593
589
578
559
532
481
470
496
519
526
519
515
519
521
478
469
502
501
495
516
525
517
534
565
584
574
540
527
546
564
532
485
458
507
551
560
601
611
584
576
571
562
551
520
476
455
492
507
522
522
502
475
486
506
535
569
578
538
481
449
427
449
473
470
467
503
564
559
544
553
552
527
481
450
472
494
555
620
632
643
686
737
757
763
760
719
673
614
523
424
349
304
306
328
343
380
371
352
352
378
456
542
600
639
632
573
520
501
495
531
585
587
567
541
527
597
650
617
553
520
513
501
506
504
513
536
591
616
581
552
541
539
542
534
537
571
567
569
570
584
592
587
569
569
576
573
575
577
587
581
555
531
544
560
614
622
588
554
518
512
534
572
610
629
659
658
614
550
494
475
503
541
541
560
560
533
517
572
610
585
575
559
571
603
635
629
599
595
603
618
641
635
609
614
626
605
584
603
606
573
540
531
513
521
513
499
493
489
467
463
430
427
476
515
500
474
462
413
381
395
413
434
450
458
438
397
387
388
376
361
381
407
407
439
490
525
507
441
401
395
388
403
416
422
433
460
444
410
429
456
451
440
459
464
489
504
499
496
496
468
455
504
548
549
520
476
445
437
444
464
481
503
492
484
496
527
556
535
486
440
434
464
480
499
476
449
498
557
549
500
464
454
466
511
536
548
567
548
520
510
502
502
517
508
530
566
564
533
510
463
437
433
473
508
523
527
505
464
466
510
525
528
525
511
485
498
526
505
451
442
504
560
577
573
566
548
522
490
468
483
502
556
583
547
482
432
419
418
461
497
505
490
480
495
499
493
505
542
592
601
535
468
471
484
486
471
478
500
521
488
458
497
549
564
543
500
501
523
541
572
595
618
593
581
564
563
570
538
521
503
506
525
546
560
561
550
516
499
511
493
461
433
450
484
532
561
551
512
500
543
555
520
492
480
469
469
488
504
516
513
514
558
607
606
605
613
613
615
615
643
717
781
761
689
594
478
384
318
290
291
316
359
391
426
425
412
452
494
504
497
476
457
473
500
537
533
531
544
552
567
574
592
585
527
484
478
495
510
526
528
549
574
567
534
521
510
518
528
519
496
495
512
539
563
587
592
557
548
565
585
571
541
527
534
561
578
562
543
566
551
530
556
557
527
517
517
513
529
519
510
548
568
564
586
615
603
580
555
570
586
588
591
580
541
521
537
596
631
622
593
582
594
628
652
652
633
596
603
614
619
637
646
645
632
612
581
555
549
562
582
574
518
439
408
404
415
431
455
436
391
392
429
463
498
501
498
493
503
531
517
471
465
473
444
416
401
401
418
431
462
499
508
487
474
434
419
441
462
473
477
480
459
439
431
432
442
466
509
526
523
516
511
502
510
532
518
490
479
491
527
525
524
546
569
523
472
469
487
480
502
531
563
547
537
551
559
555
540
495
484
480
503
525
529
528
519
512
482
487
546
554
534
547
536
506
528
541
542
520
506
544
551
534
543
553
548
547
555
558
562
545
516
503
494
487
489
515
518
522
524
522
512
510
485
459
491
540
590
603
597
582
548
501
470
451
483
543
552
515
476
479
518
513
494
501
551
570
542
466
422
439
469
503
524
502
459
450
504
554
552
518
516
535
539
506
494
512
536
529
503
508
536
527
515
569
562
523
497
490
513
525
532
521
504
497
506
515
531
506
482
485
503
526
529
506
507
531
509
484
538
576
576
555
532
496
469
458
480
514
511
476
470
491
497
498
508
496
485
470
472
442
424
448
483
506
518
494
468
490
529
535
523
521
539
592
631
673
717
750
773
722
643
584
545
503
422
334
295
277
270
304
334
359
387
412
445
471
491
506
512
495
480
489
502
508
517
524
518
510
491
478
508
534
532
520
504
494
493
515
513
507
504
491
516
557
565
543
514
481
459
507
557
557
505
467
465
503
543
539
543
523
506
528
545
540
506
493
489
489
503
538
553
532
527
523
516
526
529
553
562
581
591
585
562
547
531
553
602
640
613
595
570
560
524
489
529
596
637
632
610
599
557
509
519
555
540
529
569
583
606
627
622
593
576
553
514
480
479
529
512
452
435
443
440
423
452
491
462
414
401
341
301
327
361
389
448
474
454
431
385
360
355
381
388
401
418
441
437
408
375
376
436
491
511
483
468
485
499
472
461
448
461
483
479
483
462
431
454
467
479
491
500
486
469
451
458
453
453
460
449
429
433
460
485
482
468
420
404
419
454
466
463
477
492
482
463
476
520
539
539
521
479
449
453
478
506
492
477
491
513
497
476
443
441
471
494
502
511
534
577
610
603
561
509
508
494
506
510
495
463
461
486
519
511
528
527
536
553
569
580
595
568
545
517
480
473
503
496
462
478
511
530
526
488
458
479
505
546
566
550
543
573
587
589
607
582
517
477
477
507
560
574
545
485
454
450
465
469
498
532
523
510
508
500
508
521
553
584
576
575
581
569
556
540
566
606
618
599
552
507
496
503
521
552
553
542
558
590
576
516
479
511
531
529
550
581
614
599
578
608
652
598
523
512
511
530
514
523
583
638
645
620
589
548
499
508
551
562
523
491
545
569
570
562
538
526
549
587
574
554
482
458
447
466
471
489
505
518
545
553
527
512
479
455
462
480
489
497
547
594
607
632
672
666
628
668
691
702
691
558
393
262
207
219
254
274
277
295
333
381
413
421
440
484
491
484
502
501
471
424
379
379
429
479
506
471
437
444
463
457
431
430
437
466
481
466
451
477
522
550
569
590
580
542
545
573
583
553
513
479
504
564
605
591
552
537
541
545
559
559
527
503
528
549
538
549
580
601
621
598
564
532
513
522
550
554
533
525
546
581
632
651
619
553
520
550
585
606
642
674
679
661
622
592
561
527
559
639
662
635
625
638
624
607
603
599
593
610
631
598
563
539
528
542
564
564
549
511
477
468
449
405
422
442
469
494
483
415
418
466
464
447
423
388
372
376
391
425
467
510
499
480
442
397
394
406
424
436
485
534
504
435
413
436
427
382
370
415
480
518
525
527
519
464
437
435
445
468
509
524
541
528
482
456
429
414
458
517
548
545
548
543
516
464
438
434
434
460
513
546
548
542
528
512
480
469
438
415
444
472
464
430
441
478
508
526
520
490
463
461
458
460
467
482
494
457
410
421
453
467
486
502
512
533
514
474
473
472
501
505
498
464
419
410
443
483
491
475
473
478
479
462
449
451
476
506
495
501
520
516
502
513
507
479
473
471
427
431
483
483
454
455
480
496
504
514
511
502
504
519
494
462
473
529
534
525
534
543
571
608
580
539
548
550
532
498
472
480
476
472
508
507
527
529
525
535
507
501
516
526
528
524
557
572
579
577
540
489
457
485
587
654
620
527
454
441
495
534
527
528
510
471
498
545
526
482
470
419
428
519
565
551
527
500
478
463
466
511
533
514
494
519
540
545
526
532
530
527
588
608
589
633
719
765
742
705
635
557
470
391
334
303
316
328
340
361
381
451
528
529
477
463
486
504
527
530
485
505
557
563
566
577
584
546
528
483
453
449
477
499
550
604
611
571
537
515
511
532
528
530
527
527
559
582
576
574
582
553
552
563
609
673
653
558
470
472
494
514
559
581
571
589
570
531
507
539
580
575
579
594
584
535
497
528
601
627
620
640
644
649
634
594
577
592
619
609
612
630
626
599
619
602
561
549
560
576
600
624
664
678
683
648
605
594
650
720
707
662
606
565
529
492
510
529
540
591
627
615
509
415
378
394
436
469
469
414
365
378
427
461
470
481
478
473
474
467
460
453
462
452
436
455
455
448
432
424
453
476
447
447
465
484
499
505
527
548
512
460
426
403
413
460
497
516
537
540
514
496
528
599
618
603
570
551
523
520
496
473
463
494
550
551
484
431
443
490
544
555
536
534
548
539
528
508
468
450
507
569
592
577
555
563
568
541
525
511
517
554
589
592
617
632
590
530
484
448
430
429
423
460
511
539
576
590
545
508
523
546
548
521
492
495
494
542
600
601
560
525
518
516
498
520
546
557
565
570
583
600
562
531
513
502
526
550
512
505
511
504
506
515
545
564
559
542
548
560
546
542
531
509
502
523
546
586
594
558
541
572
562
566
564
575
584
562
547
545
516
506
551
575
571
552
504
488
474
498
520
557
585
573
570
594
589
612
612
561
508
485
481
471
463
494
530
533
574
595
561
493
446
453
463
465
477
494
535
546
573
632
651
590
536
510
516
532
573
581
603
571
524
461
446
465
497
556
586
630
666
693
704
706
713
644
570
500
445
399
372
370
369
375
363
414
501
569
580
543
513
464
466
503
510
522
506
499
513
522
535
531
541
554
569
594
599
567
523
477
490
517
516
514
505
490
526
583
608
570
568
604
604
565
533
487
429
445
534
609
621
593
565
547
529
538
511
473
444
469
510
540
591
637
627
558
518
541
569
586
556
494
461
472
483
511
549
581
560
547
561
589
618
634
589
557
518
497
482
484
527
580
599
619
660
645
630
611
558
536
510
501
525
573
596
555
492
470
466
465
465
456
456
490
556
544
478
367
335
367
400
436
436
424
443
413
377
356
365
372
363
393
420
453
481
471
429
396
373
375
357
353
360
356
381
431
445
462
482
456
396
364
393
417
430
444
452
465
485
503
489
491
513
507
500
504
474
445
416
411
426
426
436
460
468
478
504
526
517
524
573
591
564
504
461
431
414
427
462
493
510
509
517
537
528
489
466
489
518
565
604
607
567
506
468
470
482
480
482
492
507
480
454
452
459
471
503
553
594
596
553
514
510
535
572
575
569
532
461
403
402
456
504
530
524
544
545
538
536
551
558
536
531
528
520
492
492
529
526
517
501
442
425
485
519
541
535
486
490
537
563
556
538
528
527
526
523
548
565
569
563
531
509
518
535
546
546
534
518
513
514
507
477
468
510
555
548
545
540
519
501
479
489
510
514
508
490
473
471
484
502
512
524
508
487
491
502
498
482
502
518
524
529
539
532
529
529
516
520
515
473
448
457
490
489
495
502
507
528
518
502
499
493
494
520
530
520
538
547
548
556
583
617
612
593
567
559
557
544
522
492
456
457
495
496
455
444
437
461
505
512
496
507
529
544
533
509
502
486
479
477
504
528
520
527
536
539
506
516
540
523
497
520
561
600
664
706
705
728
745
704
645
537
439
387
376
395
381
324
319
360
387
422
469
527
529
517
479
447
458
478
476
483
501
555
598
623
602
554
493
450
452
457
459
498
556
553
530
513
516
559
603
618
623
615
600
581
566
570
543
518
527
525
531
530
514
536
571
561
581
616
607
561
523
529
535
572
568
526
510
498
514
554
550
561
573
585
553
508
507
523
539
514
488
481
538
593
597
626
637
626
606
611
603
578
567
540
507
524
572
583
576
577
585
581
585
622
652
650
614
567
565
560
574
591
580
533
498
496
504
493
476
476
470
453
456
478
485
464
434
403
377
380
388
411
405
403
401
424
432
434
419
389
399
396
348
300
286
325
373
417
437
428
405
400
427
460
478
479
496
510
504
515
499
447
421
403
400
431
433
435
443
467
473
427
408
462
520
504
455
410
383
430
473
462
459
471
485
483
470
470
476
497
531
555
570
558
528
496
481
484
464
442
437
429
439
474
509
532
555
546
505
473
472
516
558
536
509
497
492
490
528
550
532
513
486
486
481
461
467
506
514
515
480
435
450
487
521
502
478
522
568
573
564
524
479
487
554
583
563
521
477
438
456
495
494
496
500
509
548
553
511
467
427
422
444
466
492
512
495
464
451
423
418
445
477
480
496
544
570
545
526
538
526
527
488
450
458
496
518
526
490
478
531
532
466
429
436
457
447
439
457
468
484
503
534
527
522
529
501
479
485
496
499
471
467
470
487
524
508
501
495
468
453
474
502
480
461
464
477
465
449
476
517
538
521
482
465
457
472
496
506
494
468
471
486
473
454
477
509
526
539
545
527
475
439
435
436
460
497
499
459
471
465
467
473
478
489
454
429
449
473
492
527
565
528
484
477
493
468
433
440
473
493
502
495
468
480
510
539
539
525
539
565
629
670
699
711
661
585
516
469
402
295
272
317
346
356
355
407
423
431
458
474
484
493
490
506
498
493
536
574
587
541
488
432
420
471
511
509
487
460
439
473
487
481
492
507
517
522
575
612
596
536
448
406
412
444
495
532
543
555
540
514
501
524
541
539
514
506
501
506
493
504
520
530
534
508
495
506
503
521
543
555
550
512
503
509
511
545
559
566
555
542
568
590
557
530
537
546
537
531
529
556
631
660
653
622
573
516
494
502
505
530
571
595
591
579
571
563
544
562
588
568
550
536
502
500
525
534
517
494
462
394
353
384
419
408
372
360
387
379
378
403
404
374
371
393
401
396
390
407
427
446
476
524
535
485
438
421
434
462
452
448
444
415
415
448
469
469
489
473
432
458
512
516
469
445
471
503
466
430
421
418
439
485
505
483
482
476
479
468
482
518
503
476
460
490
524
543
536
528
507
479
489
510
486
489
495
494
503
508
503
539
563
582
543
489
478
478
498
497
483
503
514
524
558
549
507
503
488
488
490
502
542
581
596
568
568
569
560
541
501
457
431
430
490
541
527
500
533
562
561
569
551
521
517
501
492
509
542
527
503
509
510
498
495
518
534
540
510
476
470
495
540
542
524
521
533
550
541
500
525
540
528
518
473
417
428
468
476
495
500
529
526
492
478
472
463
471
480
492
516
529
530
542
556
554
564
572
534
480
420
383
396
435
474
522
579
593
563
522
494
493
487
488
505
498
466
434
498
564
559
547
522
515
518
514
525
530
526
501
489
502
517
499
507
519
528
548
585
587
569
500
458
445
465
524
556
563
602
647
712
785
765
675
569
494
469
429
403
382
357
360
384
421
428
425
464
513
534
536
557
547
526
527
531
533
561
551
518
505
531
561
558
528
537
557
575
572
556
545
535
523
551
556
554
543
548
534
540
562
556
537
515
502
509
525
561
590
606
576
579
603
546
485
504
531
528
524
534
540
560
568
548
529
533
552
550
570
594
572
539
552
563
547
559
581
602
582
562
550
549
534
525
492
505
563
601
601
599
600
607
591
560
564
597
640
702
709
647
612
627
605
560
532
531
519
499
499
518
549
522
495
503
511
494
454
464
485
494
481
468
447
461
463
423
389
372
387
433
463
463
433
422
409
400
413
418
410
408
392
409
422
431
440
453
493
490
486
479
494
508
493
484
489
510
553
553
513
482
465
479
481
472
456
432
448
486
480
487
507
544
560
568
562
539
493
458
475
486
488
485
514
540
552
551
554
553
541
527
528
535
501
478
469
431
440
486
544
570
562
554
543
559
583
584
583
551
497
487
503
497
483
472
461
462
458
451
462
450
454
540
682
747
689
587
529
515
490
468
468
497
525
534
534
540
527
483
472
469
469
485
541
615
609
572
566
564
535
507
478
477
486
487
500
501
515
533
501
504
536
556
561
541
510
494
534
588
586
562
544
531
525
506
486
443
416
428
466
502
513
541
549
538
520
495
508
518
521
522
490
467
480
523
563
593
588
565
561
561
546
561
577
581
562
549
544
501
483
479
484
483
481
504
524
518
517
514
484
477
450
451
468
497
498
508
507
504
542
577
582
594
589
599
603
563
498
449
445
475
484
508
551
541
500
492
490
531
552
535
520
519
516
513
514
518
518
564
603
592
561
521
533
538
529
509
451
440
484
485
438
427
455
505
564
601
600
559
526
516
509
488
480
474
480
516
488
458
458
451
478
539
593
614
580
523
515
556
621
668
700
721
729
690
616
542
450
354
303
288
293
366
439
456
458
451
465
474
482
480
508
550
575
586
572
527
487
492
526
540
525
503
472
479
484
459
464
515
564
603
591
579
552
535
566
566
511
450
490
560
570
572
557
540
508
479
477
496
542
579
610
594
576
567
560
521
481
492
519
540
540
535
533
520
518
535
552
552
536
563
608
645
621
557
509
515
512
503
525
536
585
575
557
572
584
606
597
576
549
529
539
564
566
568
555
520
511
545
588
620
645
633
579
540
572
610
604
568
531
526
518
494
494
489
450
453
491
526
523
446
379
349
344
373
402
396
405
423
419
422
408
408
406
406
411
422
442
426
373
341
398
472
489
481
475
479
469
450
439
426
421
411
418
423
441
493
524
514
457
428
447
459
466
454
473
486
476
452
453
474
498
495
491
467
452
444
445
472
470
477
495
504
484
518
551
537
531
502
494
512
531
563
562
538
506
483
464
465
500
528
489
431
440
466
476
494
529
522
497
482
447
461
479
477
508
556
551
510
496
493
496
519
565
567
547
555
561
538
529
522
485
451
454
483
483
478
505
499
488
486
511
530
553
580
575
539
531
519
481
453
447
483
534
573
593
601
574
529
506
533
527
481
479
519
541
511
480
512
530
509
526
549
546
527
491
501
583
615
617
586
515
472
469
486
528
563
568
537
506
492
473
471
502
529
550
518
482
507
539
565
587
578
582
591
559
538
526
508
502
507
500
514
543
573
580
548
508
497
521
530
535
542
520
515
521
524
527
548
574
563
549
538
543
518
514
518
542
515
470
465
475
449
408
422
491
558
589
585
554
534
520
525
547
555
559
566
569
556
527
508
504
508
526
513
527
549
526
489
481
489
477
439
447
474
491
509
532
528
500
496
500
530
551
513
479
459
472
512
524
523
540
556
505
470
529
614
669
707
751
782
784
749
644
539
469
404
330
277
247
246
290
359
400
440
483
504
505
493
492
470
476
530
535
512
494
500
572
645
670
606
528
473
449
452
460
468
474
489
507
512
519
541
569
584
565
570
577
554
542
550
571
596
587
549
520
536
504
488
454
426
423
465
558
606
591
563
540
510
513
545
559
576
585
593
571
577
580
561
579
606
584
539
508
535
607
623
595
583
569
546
550
545
501
483
488
553
591
580
554
549
536
546
589
621
637
634
616
613
628
630
613
583
567
564
557
540
557
589
601
574
554
528
490
427
369
367
395
377
371
397
413
416
428
439
417
388
394
392
409
420
410
389
388
419
447
484
521
531
503
448
390
337
294
317
387
404
392
392
393
401
449
474
469
463
437
425
456
478
470
481
522
526
473
424
446
493
500
465
454
489
502
459
432
443
472
496
519
495
463
456
480
513
512
482
470
470
479
494
509
526
551
564
555
523
480
477
492
486
473
490
476
449
452
468
454
452
470
516
527
516
500
486
502
497
473
481
507
521
515
509
497
512
579
636
611
558
538
511
477
452
478
494
479
469
482
526
518
444
468
520
542
530
514
517
500
485
481
493
508
510
518
502
496
516
537
535
542
550
515
494
504
511
505
519
526
548
576
568
539
487
476
500
514
548
556
533
517
510
453
423
447
486
510
549
526
492
503
555
585
573
561
530
497
491
519
539
529
497
488
506
523
514
514
513
519
522
566
578
562
538
504
498
496
481
472
484
483
491
527
548
559
577
584
561
521
533
523
486
456
444
435
458
533
540
536
529
510
525
535
520
495
491
524
560
575
597
619
610
631
664
691
724
717
657
592
545
471
367
295
272
269
283
313
376
389
403
447
485
520
547
563
560
542
548
548
529
522
530
552
558
551
562
569
560
565
588
657
678
653
563
470
457
506
508
506
513
509
522
527
564
588
557
503
482
483
493
536
592
603
578
565
578
571
555
524
518
559
590
578
544
513
513
498
470
450
452
431
473
536
572
594
617
631
648
590
499
489
507
526
532
539
564
608
586
531
537
570
592
594
598
585
577
568
580
579
586
567
572
596
609
585
531
497
503
529
545
555
551
535
514
493
532
558
570
552
507
442
365
350
358
380
430
478
482
434
408
410
359
342
367
382
372
395
438
432
400
396
396
414
432
443
467
486
486
491
503
490
437
390
413
471
507
475
406
361
376
420
466
439
406
406
425
504
573
556
494
461
458
479
507
544
512
470
467
465
467
486
490
514
525
504
496
491
475
504
508
470
439
430
427
436
437
467
493
520
538
552
596
641
625
564
499
462
439
427
439
464
453
428
457
502
494
484
473
470
510
580
605
554
524
521
490
466
441
425
443
476
465
477
524
547
582
600
565
516
494
497
497
496
504
505
512
523
535
546
527
502
502
494
487
470
452
442
479
525
542
530
489
455
457
514
546
530
523
533
523
515
514
508
506
507
481
441
449
481
532
571
560
516
467
462
484
518
544
511
489
469
486
508
532
546
527
494
477
486
492
492
509
543
532
482
453
481
505
522
520
513
509
546
616
601
543
509
486
493
500
514
530
513
475
435
445
482
534
580
587
587
567
541
518
516
523
523
523
512
491
494
521
533
528
513
524
544
514
475
462
485
490
490
480
482
470
463
463
469
489
521
517
525
550
551
518
494
494
483
503
566
642
698
740
763
773
755
727
670
574
482
394
309
240
253
319
342
376
422
440
473
515
517
535
526
528
523
522
542
566
552
544
551
538
527
501
490
526
536
529
527
540
557
568
572
532
494
491
507
526
506
489
475
500
533
562
566
582
600
600
582
565
567
558
562
535
518
571
612
607
556
521
522
515
499
492
486
504
513
548
572
543
530
565
576
551
537
543
519
514
539
558
559
541
547
547
536
542
581
623
644
615
610
624
620
618
609
604
586
539
527
548
568
576
566
572
552
547
580
577
540
551
533
522
519
513
524
518
500
482
490
475
415
383
363
357
389
467
491
469
411
359
348
349
336
365
420
471
450
405
391
398
383
380
393
376
377
409
451
472
458
413
378
390
418
433
443
459
466
475
490
497
543
598
600
497
380
364
384
401
416
440
464
458
440
470
519
546
562
565
518
487
477
494
531
536
523
504
469
440
445
473
485
489
513
541
535
535
539
545
549
541
499
467
474
453
476
497
508
523
513
477
476
496
528
532
524
519
545
555
524
494
490
501
496
492
490
470
474
491
499
520
562
605
577
523
476
428
425
439
488
513
507
503
519
540
536
514
517
552
584
554
517
509
511
499
509
537
552
573
591
588
551
502
468
458
450
461
497
523
530
536
517
482
461
470
461
491
535
562
568
543
525
526
520
511
503
497
505
533
546
552
558
546
510
492
509
576
615
619
592
552
527
513
471
426
416
408
386
411
464
504
527
549
557
545
541
522
536
557
560
521
468
458
492
543
585
595
575
546
489
460
440
445
460
487
536
552
536
514
522
559
548
513
483
474
473
486
513
533
562
570
556
546
552
531
514
528
558
592
599
560
535
536
503
468
446
440
456
492
521
528
537
536
500
467
456
500
528
522
526
537
506
489
499
522
546
522
506
505
497
492
501
520
522
508
540
596
632
675
694
707
746
761
732
686
620
541
477
395
328
321
338
362
362
361
386
441
463
451
438
459
507
513
508
500
490
509
552
577
544
521
537
558
550
553
547
518
552
589
576
567
556
537
529
578
602
585
560
525
520
514
477
464
486
495
506
522
522
527
596
683
718
682
601
509
452
461
510
566
581
563
561
575
574
557
541
534
517
488
540
571
567
567
573
586
588
568
548
546
558
570
532
509
548
600
606
587
577
586
596
569
528
581
624
625
618
609
599
599
607
623
605
617
650
657
644
613
589
575
522
503
506
508
510
531
533
519
513
535
533
480
451
476
471
432
431
424
407
380
367
358
373
400
406
414
429
434
415
381
407
463
466
472
472
474
448
446
468
477
472
458
447
457
464
425
395
410
436
468
483
482
485
475
471
506
531
477
410
410
450
483
538
605
584
464
412
418
439
465
462
463
459
468
492
507
506
498
500
512
526
508
482
474
487
502
498
458
452
512
538
551
581
573
563
556
525
488
475
485
471
456
455
473
486
466
455
465
469
465
466
505
555
563
549
513
484
479
460
502
514
510
536
548
512
483
477
497
525
515
476
459
469
504
560
600
552
492
479
495
503
490
492
492
504
534
541
506
471
457
471
495
497
517
534
534
499
474
492
502
522
525
537
541
554
532
505
492
495
500
519
522
523
509
493
477
488
489
505
544
565
528
497
500
459
452
484
494
508
508
512
517
530
560
568
558
548
542
543
544
547
567
565
561
568
548
498
459
488
503
521
536
502
506
530
512
505
498
527
540
495
502
503
497
513
521
532
521
495
521
555
556
514
479
455
488
523
513
477
473
475
479
482
513
505
464
445
482
525
540
531
524
509
479
482
490
488
479
499
524
536
556
582
619
676
713
707
686
649
652
604
518
429
355
319
348
389
389
378
360
340
352
374
410
436
488
526
520
530
547
546
560
591
581
545
540
545
501
460
482
486
489
511
542
555
557
557
556
560
545
548
537
498
512
514
502
509
516
524
523
492
488
536
552
551
555
529
501
505
521
494
508
576
600
604
595
568
522
468
432
423
440
496
535
491
484
513
492
459
472
500
534
544
551
531
532
558
553
535
555
626
624
569
565
546
530
507
489
526
563
602
594
571
544
508
496
520
536
537
540
563
589
600
565
493
458
456
492
509
497
465
453
450
434
380
368
393
417
406
397
372
357
347
353
366
355
368
379
384
400
405
411
428
408
398
377
373
395
416
463
488
495
466
431
412
374
381
400
403
431
431
422
431
431
406
398
394
399
437
478
479
469
472
496
477
426
424
456
471
486
515
523
529
532
523
502
486
497
492
469
462
473
490
512
535
528
497
485
457
437
434
427
409
399
389
416
432
443
466
482
497
499
521
529
544
535
521
533
531
515
528
504
471
483
530
544
553
568
552
459
438
460
497
540
542
517
475
437
461
511
536
521
526
559
573
542
500
515
504
478
465
479
513
533
533
553
570
564
542
496
488
487
478
476
471
461
494
520
533
549
557
534
518
491
486
479
446
454
485
533
583
562
519
504
520
529
499
485
492
525
539
529
552
562
568
573
553
523
493
493
533
530
524
544
586
582
505
491
497
489
503
554
590
606
597
558
532
531
523
502
494
513
509
483
473
470
475
470
481
524
566
570
576
561
521
508
545
559
561
558
582
589
562
507
494
518
526
524
556
599
614
612
588
563
577
608
619
643
678
700
726
720
666
602
533
436
379
364
344
335
328
314
338
415
496
525
555
565
574
597
599
582
534
491
531
566
551
556
579
564
539
538
545
522
528
515
513
530
542
531
552
609
598
543
502
479
477
502
515
508
522
561
569
543
563
574
567
554
579
626
625
572
527
499
469
465
472
478
509
534
542
556
586
601
605
593
559
531
532
531
533
558
575
573
579
591
599
611
636
623
599
553
537
560
579
585
597
594
609
587
558
558
567
561
578
633
679
697
671
635
606
563
536
519
513
485
471
479
499
543
595
638
631
553
465
403
380
381
393
412
425
434
439
430
442
428
415
408
415
432
432
446
413
367
318
318
336
377
401
393
408
445
460
456
461
495
495
439
419
416
412
444
495
500
486
513
530
515
469
442
447
438
422
430
450
460
468
523
541
502
466
500
528
538
549
542
507
467
446
426
430
472
495
504
530
524
494
474
455
471
505
522
518
525
514
492
475
499
538
553
554
508
480
474
481
492
515
518
508
523
555
625
667
626
568
501
460
451
445
463
488
491
500
508
530
552
571
579
569
537
495
493
489
459
475
545
572
571
584
610
602
555
503
463
450
480
520
560
571
546
511
546
569
546
517
510
504
531
592
630
596
555
516
518
535
554
568
539
509
508
504
506
484
484
500
497
496
512
547
539
497
480
513
542
541
530
484
433
440
484
516
526
516
543
573
557
532
509
509
529
556
560
550
545
509
473
479
505
498
452
438
463
474
472
500
546
576
568
527
521
517
500
504
520
537
531
498
500
490
477
467
452
438
455
462
453
468
474
482
499
524
553
572
561
512
492
509
510
499
441
432
469
490
488
503
528
523
524
539
563
597
620
662
719
710
649
587
503
416
351
297
259
265
293
305
346
388
435
472
486
479
491
488
440
436
449
477
495
506
521
518
504
529
545
500
437
433
472
487
471
462
486
489
455
478
524
542
529
509
505
470
429
441
469
506
493
458
481
501
497
498
486
496
513
501
469
423
406
454
506
520
521
531
526
499
505
494
492
520
533
516
483
476
486
477
465
467
484
495
494
501
498
488
519
531
536
548
541
537
514
525
522
522
514
487
451
477
522
553
563
561
524
516
546
573
595
582
527
495
467
458
446
444
441
428
426
446
493
502
461
436
469
478
456
429
397
365
365
350
367
397
372
380
399
422
439
436
415
396
389
400
389
396
424
446
451
430
393
414
450
471
490
479
437
423
444
467
487
499
521
562
550
492
468
482
495
461
447
493
526
579
591
574
546
531
527
522
509
487
497
526
506
464
467
507
526
545
568
547
572
593
566
530
530
552
522
496
500
504
504
531
592
634
616
573
539
555
555
547
574
597
586
592
595
562
527
522
525
543
553
532
575
611
610
589
566
548
516
489
481
519
558
571
595
598
616
641
666
678
603
529
513
541
551
561
575
584
582
593
623
617
600
606
596
560
539
533
538
560
574
590
632
652
639
610
574
581
595
586
618
632
617
605
608
586
576
608
632
647
625
569
521
528
548
562
580
601
598
589
611
601
582
572
542
551
571
591
625
662
653
602
597
582
598
626
647
686
706
677
615
571
571
578
574
561
587
610
616
593
591
618
616
593
593
630
659
685
681
661
632
613
615
616
608
600
587
616
668
667
614
581
590
596
581
579
580
587
605
622
635
663
653
589
551
571
613
624
597
580
598
633
615
576
577
582
585
612
677
743
765
761
755
730
737
793
877
880
794
703
623
567
507
433
419
485
516
520
534
545
560
599
599
569
548
570
607
605
598
599
608
607
594
575
566
551
574
589
593
582
623
681
679
649
637
640
644
670
694
672
604
558
569
596
609
591
585
559
579
578
579
617
643
626
606
581
567
567
576
586
606
625
616
607
559
557
635
692
720
692
603
537
539
573
578
588
625
672
679
656
638
620
608
590
609
610
581
543
527
562
603
614
609
608
642
671
677
694
707
710
697
671
649
626
611
597
588
598
639
676
660
586
568
586
590
598
575
552
533
559
600
573
511
445
395
373
385
445
473
460
462
475
468
442
460
483
472
444
398
400
446
466
465
483
502
514
542
543
487
434
412
411
415
403
409
438
471
457
442
417
446
472
471
471
478
492
490
475
481
501
499
505
526
538
527
515
515
518
532
519
520
487
434
404
418
454
441
432
438
450
473
505
527
523
504
509
525
521
489
498
493
493
501
478
482
523
561
558
536
508
492
481
470
464
483
484
437
407
404
455
533
572
549
506
491
486
483
496
545
531
483
459
478
533
559
578
602
598
553
513
514
522
525
493
496
529
540
510
487
470
474
485
466
433
450
470
496
534
544
523
514
509
536
575
560
562
547
516
490
480
505
531
531
507
483
469
476
473
476
497
496
492
475
478
505
519
524
513
531
528
492
449
454
458
475
509
531
526
496
492
504
522
527
520
517
515
490
489
517
488
427
416
405
434
473
487
476
488
485
467
474
486
490
509
509
493
503
500
486
468
479
516
549
549
510
483
487
524
526
489
479
527
559
579
617
669
689
675
660
644
569
488
420
336
290
296
319
310
303
318
340
370
406
442
483
532
552
529
499
547
588
567
541
508
484
477
480
489
500
511
506
480
495
506
504
525
499
460
421
426
488
527
540
525
508
502
496
502
470
446
449
441
430
484
550
566
557
517
477
459
487
558
607
586
537
463
424
426
496
577
605
544
460
421
430
456
469
490
519
553
536
505
492
498
502
498
509
530
560
594
588
568
519
502
528
546
561
560
530
543
548
558
569
589
585
565
549
538
530
527
530
523
522
541
519
417
360
392
424
450
458
427
403
384
372
331
280
283
321
323
309
303
308
323
335
345
341
348
389
436
426
400
402
411
370
356
379
370
343
337
367
396
380
376
365
360
366
390
378
377
379
407
436
451
476
468
428
372
355
366
371
385
412
375
360
407
472
519
509
464
433
409
411
407
401
393
412
442
487
503
473
386
333
334
347
379
436
464
433
424
444
432
446
458
443
405
360
362
418
449
465
479
439
417
413
428
452
462
452
430
424
414
379
373
406
445
473
470
511
591
614
555
491
411
342
304
344
389
401
393
394
401
422
426
442
482
493
480
479
461
419
422
452
456
472
489
507
480
448
447
470
490
492
484
509
536
553
550
543
524
494
452
455
446
447
469
473
461
432
421
455
464
456
479
493
476
448
483
526
557
552
549
531
501
487
499
469
473
463
446
452
474
505
528
573
597
590
557
497
454
432
413
379
385
397
425
453
444
460
486
489
492
491
521
552
551
560
607
600
568
566
615
692
722
697
643
573
465
379
335
315
306
282
234
203
238
291
358
404
442
479
493
473
470
496
490
465
440
469
491
495
522
528
511
504
474
449
444
479
519
566
561
507
479
491
490
458
446
444
453
476
498
544
583
562
516
477
464
448
465
524
547
536
528
551
559
535
491
440
426
453
485
502
527
551
566
556
553
549
531
476
443
442
471
518
529
525
525
526
547
551
518
496
515
506
504
534
562
584
557
524
520
528
519
530
555
576
572
564
557
562
581
608
618
597
544
489
486
500
465
432
426
483
524
509
472
437
386
355
351
365
403
414
406
401
393
377
362
353
366
376
381
405
425
433
429
402
374
382
398
376
372
407
420
403
373
392
413
391
395
403
398
413
419
414
406
438
482
507
493
455
442
482
497
470
479
488
433
389
415
489
536
540
501
462
433
439
445
456
473
463
432
438
467
471
480
491
496
487
491
482
473
465
454
454
458
480
499
514
511
497
504
520
484
446
444
463
503
540
521
474
463
464
463
474
465
471
510
570
557
547
543
533
509
486
472
476
495
512
507
466
459
498
510
499
483
491
521
514
497
497
490
447
423
438
491
523
502
478
478
502
512
491
509
531
525
513
497
500
486
459
447
452
489
543
545
548
556
542
530
524
503
478
436
431
445
475
481
476
465
463
506
539
527
516
539
537
534
551
539
526
535
540
537
535
557
569
561
555
527
495
480
491
535
537
512
506
498
476
468
474
485
498
512
552
559
527
512
550
563
554
512
505
508
520
550
577
573
547
541
557
584
561
532
527
546
549
523
512
507
489
481
472
494
527
496
454
476
522
541
541
541
559
590
619
645
608
542
498
470
456
468
502
547
542
512
491
504
511
487
491
493
480
462
478
503
519
544
542
520
535
567
566
534
502
502
502
484
489
512
537
528
555
588
644
663
660
688
743
769
743
701
684
606
466
358
335
363
350
340
386
446
459
447
459
490
524
558
553
543
529
521
521
515
512
545
549
519
479
448
474
535
543
494
506
539
540
523
521
525
526
544
571
573
569
545
528
541
549
502
488
536
583
612
598
579
548
515
487
504
530
518
503
538
556
558
545
516
514
536
568
596
593
569
539
496
515
519
524
574
610
593
572
546
517
535
550
559
542
550
603
619
611
601
570
552
530
536
550
558
554
533
542
564
569
577
604
622
617
611
603
598
596
583
561
536
523
542
566
573
524
464
444
458
456
464
473
475
471
477
425
402
393
390
388
376
387
406
425
418
438
453
429
423
426
448
449
410
406
430
460
485
471
451
446
437
432
419
427
449
463
457
425
410
434
449
447
458
493
491
468
468
465
455
444
470
475
492
486
446
427
434
466
490
509
502
485
463
452
483
540
540
506
472
444
473
475
481
497
492
476
476
463
449
453
472
486
507
550
538
521
529
525
484
452
466
500
534
536
519
493
446
411
475
547
540
481
467
469
482
495
466
436
453
472
496
502
503
496
502
525
523
504
496
515
517
523
524
516
504
482
470
455
456
496
522
523
548
589
568
487
461
478
507
493
456
460
521
580
568
496
465
494
527
532
514
467
446
461
481
486
490
503
531
542
539
551
546
522
495
476
464
474
499
510
479
465
473
508
545
572
561
536
494
470
484
542
575
560
528
517
529
532
533
528
493
469
470
490
495
501
503
481
476
496
503
495
514
511
474
489
527
550
541
563
555
537
524
521
503
480
473
478
492
503
505
509
490
473
496
547
547
530
517
513
514
519
516
500
518
537
544
533
494
481
491
523
567
583
561
551
532
525
511
483
503
535
535
521
507
495
500
527
545
512
467
464
467
471
475
501
540
553
552
551
523
480
483
502
486
460
461
487
532
552
559
561
576
556
499
496
504
525
595
666
705
718
726
722
687
627
577
523
468
420
350
318
306
283
278
305
395
500
574
593
582
568
565
554
531
520
512
519
507
512
522
550
570
589
575
572
560
507
487
539
572
544
535
541
515
510
528
571
586
599
590
575
557
550
564
558
533
506
485
484
515
517
526
551
579
583
582
583
552
492
473
500
509
535
544
537
555
587
607
600
584
562
582
598
567
507
510
575
626
651
633
601
581
570
558
530
514
523
517
505
548
584
586
579
594
584
570
581
615
611
598
579
602
620
614
599
607
583
565
521
513
536
541
505
502
524
519
494
489
478
465
442
418
436
465
468
454
434
417
428
413
398
397
398
420
415
414
422
445
455
444
428
426
443
464
467
480
495
508
484
458
454
454
464
491
511
554
568
539
486
438
439
480
512
510
528
536
504
459
441
445
474
515
544
533
509
501
500
484
476
481
513
537
551
554
562
551
552
550
519
497
488
485
490
470
470
475
506
556
577
548
519
505
503
526
544
529
518
528
557
570
566
554
532
519
493
519
568
559
546
528
522
507
450
429
483
496
481
460
479
539
578
587
558
522
518
532
515
498
491
487
485
503
496
494
533
574
594
556
538
528
497
474
462
461
485
505
516
531
519
493
483
474
484
502
500
501
507
512
547
561
540
523
561
570
527
483
459
456
479
479
475
458
439
467
499
530
553
560
567
574
589
592
566
530
500
487
464
460
474
499
527
553
542
521
490
489
535
536
540
562
563
540
536
512
476
482
530
548
558
559
542
531
520
484
459
482
455
431
466
524
523
511
514
497
465
471
526
539
489
456
455
461
479
491
519
519
517
524
527
560
612
660
683
675
656
649
652
677
659
595
533
456
412
364
341
360
413
460
448
419
403
379
393
412
445
469
458
466
507
531
556
567
583
575
590
575
552
568
595
553
502
454
450
491
519
536
558
565
530
532
562
582
595
577
548
537
518
496
493
513
520
543
560
549
530
536
563
588
579
567
583
611
600
541
480
460
468
472
500
531
564
580
573
562
569
590
571
564
562
561
576
575
540
559
606
583
559
574
606
629
630
606
564
545
579
599
585
594
592
610
629
619
625
648
647
624
595
581
584
598
593
583
534
504
525
531
518
540
556
520
479
461
439
416
388
388
429
432
394
382
380
382
387
385
438
489
463
432
429
404
383
390
411
398
379
392
397
419
427
435
434
449
453
436
410
410
449
438
434
432
415
406
431
442
472
496
495
488
460
465
475
456
468
513
544
557
530
502
454
422
470
525
550
542
519
509
516
509
470
454
477
492
481
446
414
438
480
527
567
575
547
496
475
468
450
447
477
564
619
600
525
486
497
525
571
599
582
518
460
440
455
466
482
499
489
497
502
508
521
549
563
536
499
490
485
473
493
497
485
468
457
448
435
457
534
583
629
648
618
564
521
496
487
472
457
480
534
577
573
568
558
497
441
404
412
460
521
551
553
543
551
530
487
495
530
500
479
545
593
570
529
498
494
507
541
556
507
442
453
503
500
473
481
518
545
559
581
597
602
597
566
519
502
511
535
540
534
535
532
516
523
544
543
519
505
497
506
524
539
541
518
504
503
486
485
498
510
508
502
519
554
571
573
542
547
554
537
520
521
520
527
550
589
595
545
538
513
519
538
553
561
548
501
457
446
446
480
510
524
536
547
537
526
522
531
545
538
523
508
499
521
548
564
559
554
513
466
445
468
499
505
485
496
513
522
528
529
533
576
571
552
531
494
461
441
440
470
487
508
542
578
591
584
559
514
534
608
693
731
731
693
648
584
527
459
369
326
292
298
315
350
441
502
538
545
509
476
483
499
497
496
508
493
477
477
488
526
537
563
579
573
554
544
551
577
576
555
533
508
487
492
508
522
560
603
612
567
511
495
501
499
504
547
592
605
580
527
505
499
506
527
537
540
538
524
540
582
580
579
578
548
504
548
600
595
559
544
559
565
567
557
563
534
474
478
489
502
543
576
587
596
583
573
591
606
600
594
606
621
621
600
599
629
646
598
576
568
543
532
572
592
576
583
601
590
578
578
571
556
533
501
505
465
417
418
435
456
481
491
469
436
441
423
393
371
356
369
385
382
390
408
406
418
432
419
417
457
450
442
453
478
452
423
436
464
477
497
482
451
437
413
415
420
413
426
436
440
474
491
508
490
451
435
425
423
441
446
483
526
545
513
506
514
517
492
498
514
520
522
538
571
559
524
494
474
460
462
478
500
524
528
516
517
524
524
489
460
443
456
472
486
489
487
494
506
503
485
475
487
531
546
522
526
521
479
476
533
615
614
569
498
476
522
519
509
510
521
532
531
525
532
532
524
523
549
544
517
479
451
456
496
529
504
481
504
527
547
542
524
517
506
470
442
469
543
557
526
510
504
535
568
554
517
504
524
515
512
526
528
531
540
547
567
558
522
500
506
524
502
465
482
505
504
519
527
509
509
535
533
510
510
537
584
574
499
430
436
496
547
560
550
552
544
546
560
578
590
577
522
477
480
498
513
508
509
506
520
519
513
501
492
510
532
538
543
541
484
442
463
494
523
565
585
562
538
543
535
524
537
543
562
577
595
542
481
471
483
524
575
591
564
545
575
570
537
524
532
522
521
525
539
552
514
472
459
458
476
503
532
562
566
532
501
503
497
484
482
496
488
465
445
459
522
575
561
547
571
571
531
503
487
498
516
537
573
611
600
597
661
700
712
726
699
641
565
498
432
382
372
388
382
390
391
384
407
443
455
461
453
480
508
517
519
550
588
598
595
563
528
495
466
482
518
543
551
565
580
555
577
587
558
527
533
573
598
564
541
539
538
527
510
518
504
501
522
542
568
583
596
579
555
534
529
531
520
498
521
547
553
522
487
468
504
542
573
546
514
494
493
536
619
655
643
602
556
517
519
539
494
478
554
589
582
596
609
613
584
552
552
543
540
566
582
574
596
599
598
604
607
593
576
575
571
577
604
586
577
596
551
516
530
542
532
471
456
497
521
517
468
431
445
440
402
379
381
410
428
432
433
427
429
436
422
376
362
383
392
399
438
481
491
474
429
398
418
441
438
443
443
434
423
427
456
500
500
493
483
420
409
449
452
448
436
469
491
510
496
503
522
526
509
495
498
530
529
498
487
474
444
433
442
471
530
595
624
607
556
496
449
435
454
475
530
510
464
466
475
512
540
517
474
463
484
511
536
513
469
449
467
500
554
570
567
474
413
464
494
498
502
509
507
523
504
490
512
539
516
518
542
536
528
548
538
478
457
434
415
422
475
490
474
472
482
479
491
495
496
507
498
498
511
492
458
423
425
477
516
527
508
477
449
453
465
509
532
543
520
506
503
513
499
484
474
490
507
486
469
486
486
482
508
529
514
510
517
508
496
489
490
488
463
444
477
501
485
503
518
521
521
539
554
562
547
559
563
508
485
485
493
525
549
558
544
538
526
525
538
549
564
556
527
489
475
470
443
408
437
474
480
507
506
488
462
469
517
546
561
557
572
551
515
499
483
490
524
537
536
542
554
524
501
487
510
572
613
641
682
719
737
719
653
579
518
451
397
372
341
327
337
356
380
381
400
442
462
477
490
500
523
546
561
564
569
553
523
522
543
559
576
594
581
552
532
529
518
523
533
517
498
502
518
541
563
524
494
513
542
557
564
557
568
576
590
622
595
543
545
534
523
496
487
508
562
584
555
522
515
520
536
561
577
598
598
547
508
523
541
552
544
548
568
559
568
612
612
581
552
539
552
543
520
535
570
566
571
581
600
628
629
626
601
531
524
558
597
631
608
565
558
576
592
598
588
598
594
595
585
557
529
513
484
485
486
486
464
396
376
388
432
461
434
419
416
367
332
355
408
428
404
389
395
422
427
419
430
458
463
459
446
418
399
412
411
390
386
380
391
353
344
368
419
498
566
583
533
474
428
439
476
503
495
494
473
459
489
500
471
486
516
508
506
507
483
480
486
503
498
487
462
464
495
514
517
522
503
494
530
517
467
449
454
472
517
519
501
505
499
479
495
533
562
553
534
521
505
471
461
482
508
519
501
503
519
533
513
500
516
521
504
484
489
513
541
546
547
534
506
507
536
548
545
575
564
543
516
498
508
529
496
448
471
513
543
566
569
557
525
532
552
537
489
440
405
436
473
482
480
497
512
481
480
490
555
590
585
566
549
536
519
492
498
538
557
543
532
523
515
516
514
518
512
509
507
483
474
492
526
535
516
512
482
475
495
529
521
500
493
493
507
551
569
568
533
502
501
503
562
588
562
524
499
493
494
519
550
563
558
541
518
512
521
542
530
493
472
496
535
547
558
561
550
536
521
521
531
504
490
485
484
498
512
490
484
477
490
515
550
566
550
516
507
523
523
519
515
507
504
508
535
536
507
519
555
540
501
532
551
567
588
596
624
653
680
739
797
740
607
518
452
383
343
327
306
345
390
416
409
401
437
483
516
515
505
486
458
483
536
537
530
555
572
554
565
572
552
548
560
549
534
515
525
563
577
593
550
501
465
472
513
559
586
534
514
553
571
587
578
546
509
502
517
523
554
578
552
523
514
548
542
504
490
505
519
528
540
555
572
594
613
606
590
548
521
517
536
540
532
522
550
544
530
540
566
603
630
607
578
545
539
550
556
562
545
521
503
532
631
665
608
602
619
593
574
583
599
608
607
589
582
585
553
520
495
509
544
558
567
552
526
527
512
469
410
360
374
384
361
334
379
432
438
412
386
368
363
379
404
435
446
444
407
396
441
410
361
397
426
446
444
442
434
440
466
492
488
477
484
475
434
428
451
438
429
469
490
498
524
539
516
473
441
410
397
418
441
462
486
515
539
508
473
482
459
446
443
500
567
559
510
503
503
487
467
469
468
468
481
505
530
550
546
516
504
532
551
555
500
458
449
482
519
524
509
528
539
527
495
474
485
520
518
552
574
533
483
463
468
458
471
495
506
519
554
580
554
496
487
484
489
507
533
568
597
565
504
470
463
463
476
502
520
543
548
539
525
512
510
506
502
524
532
523
529
534
522
509
511
558
580
550
531
525
528
535
542
526
519
510
509
496
471
496
516
525
546
571
545
524
486
461
465
481
501
512
528
531
522
508
500
513
529
530
525
546
547
530
520
509
506
538
570
567
566
545
537
528
525
518
511
504
487
490
514
502
509
522
543
550
560
578
542
490
479
488
467
437
496
545
559
567
579
585
578
580
570
535
500
493
471
471
498
501
505
547
567
576
547
479
428
429
486
526
548
527
480
475
510
509
485
491
474
434
421
460
501
549
611
637
619
607
637
694
755
784
743
688
611
540
441
373
337
323
322
323
343
384
396
400
424
447
508
581
633
622
558
497
463
452
455
466
501
538
535
521
491
483
497
533
576
581
540
537
531
476
479
517
533
531
574
609
622
592
557
518
470
447
454
490
519
538
530
537
549
545
535
550
567
576
583
552
522
524
563
598
612
634
624
587
562
520
486
482
504
532
538
536
550
536
495
468
476
522
559
588
599
612
613
574
576
605
640
655
649
600
573
576
581
589
593
589
594
609
628
641
653
598
538
535
550
574
587
527
493
497
522
528
494
468
464
440
425
421
390
380
425
464
465
475
474
440
401
396
402
383
385
408
427
433
420
418
411
399
392
391
392
381
385
433
496
484
431
398
398
415
441
479
503
489
476
489
488
488
482
448
447
457
488
523
534
537
531
486
448
412
409
432
466
487
496
486
504
494
467
472
504
513
525
535
545
542
519
490
443
486
518
532
543
523
502
468
449
476
505
545
577
559
521
497
521
526
530
560
551
490
451
427
434
469
493
511
499
497
507
503
520
534
525
532
544
533
484
471
478
489
521
541
531
503
479
467
475
488
509
530
536
516
525
516
489
495
537
548
554
556
519
493
469
473
475
490
508
509
521
546
553
547
544
500
459
453
477
493
475
445
471
500
508
516
561
615
591
542
525
540
538
501
471
443
463
498
535
565
563
536
523
522
551
551
550
542
527
503
477
443
439
453
478
509
554
548
524
505
462
466
488
493
481
465
471
508
510
504
526
528
527
557
566
537
528
539
532
528
492
489
516
534
518
538
571
605
671
745
734
656
601
557
486
414
369
336
289
279
311
329
355
399
450
488
490
460
447
475
531
567
602
617
589
548
485
446
449
508
546
585
610
603
581
554
548
527
538
566
546
500
468
492
551
563
543
537
497
476
489
516
546
558
560
537
513
494
470
491
534
547
559
562
578
586
574
554
544
545
524
504
527
541
545
566
577
555
532
529
530
521
511
520
554
571
588
589
563
523
513
535
553
547
542
556
552
560
572
595
631
669
686
671
649
623
559
530
531
515
510
546
606
630
601
566
542
536
495
478
480
490
486
455
410
388
418
466
458
430
394
369
342
328
325
353
402
435
432
448
449
417
375
358
382
416
437
445
431
427
419
395
390
402
425
463
480
454
424
422
415
426
442
452
469
490
478
437
400
396
450
464
455
449
460
462
454
462
518
522
490
490
522
532
513
470
425
409
441
496
536
529
526
543
539
518
486
476
475
471
479
490
516
532
527
488
438
449
484
460
445
482
531
539
538
509
480
448
443
465
493
539
575
574
554
542
498
470
472
470
473
523
543
498
486
506
541
565
547
526
512
486
466
455
470
486
492
475
495
524
545
547
498
483
478
492
521
525
506
521
534
475
459
481
507
519
499
494
502
502
514
498
493
498
466
472
528
563
567
556
565
598
583
539
519
514
479
426
411
422
428
440
461
474
495
526
532
539
543
528
521
538
532
485
461
478
508
531
540
514
526
548
541
524
503
490
502
534
545
552
525
511
532
549
524
484
477
498
537
577
574
557
535
530
535
528
549
550
515
473
486
519
574
605
605
582
525
490
447
441
457
476
521
542
533
536
555
558
495
449
460
498
517
528
565
576
545
507
481
505
508
488
488
528
566
571
532
461
446
501
553
570
593
625
646
703
745
753
709
672
628
562
471
398
349
327
340
343
351
366
406
467
496
505
528
536
539
496
456
448
455
477
521
539
538
532
537
539
535
520
512
510
521
541
554
551
557
560
559
572
577
559
492
446
436
482
550
568
547
515
492
522
548
534
519
523
539
540
542
531
515
529
556
576
593
594
563
523
510
500
520
528
524
518
513
525
544
528
493
496
518
537
528
533
566
586
594
603
628
623
581
562
550
530
525
555
599
619
605
617
640
645
603
561
559
568
571
550
524
521
539
569
593
602
599
573
545
520
486
487
478
440
419
452
472
433
393
412
418
400
398
393
395
400
391
378
374
367
374
400
400
412
444
432
411
395
406
431
412
390
423
480
513
512
505
478
426
419
434
449
469
474
488
504
473
427
416
429
451
464
459
437
453
496
525
519
535
540
504
464
417
419
453
503
535
561
550
524
503
489
495
481
468
475
485
496
510
523
519
499
498
500
518
510
503
507
499
503
512
521
518
533
543
537
508
501
475
472
505
517
524
549
550
540
519
518
514
493
475
486
517
483
424
440
485
529
568
584
587
583
558
528
513
498
483
477
495
513
531
549
548
530
519
514
503
505
519
527
551
528
502
512
503
478
493
487
468
495
560
608
583
525
508
527
516
485
477
496
500
505
545
574
559
505
487
493
488
481
500
530
514
499
513
536
545
553
548
538
528
514
498
485
515
552
558
510
465
471
489
512
536
532
512
522
515
500
503
513
511
515
526
531
510
515
537
559
561
568
559
538
508
492
522
569
595
590
573
538
501
490
500
520
547
548
527
516
525
535
517
505
508
515
495
461
462
503
520
492
469
475
499
512
523
495
482
495
496
498
532
560
559
556
578
620
642
652
663
722
798
798
718
661
623
578
501
389
329
283
228
240
284
332
395
450
487
507
507
496
493
496
502
531
562
591
580
554
555
545
521
487
502
516
510
514
501
495
509
554
596
557
498
504
525
541
559
571
575
593
603
581
551
538
558
559
573
586
548
512
501
516
534
547
538
531
524
510
507
506
482
502
534
502
472
526
582
577
586
611
590
566
550
541
534
546
582
584
586
599
620
632
591
570
595
578
551
536
535
534
541
567
585
587
579
569
579
587
582
578
574
563
538
500
520
586
625
606
570
544
523
509
508
501
493
455
433
416
398
405
449
449
411
386
375
374
394
406
396
403
408
387
393
391
371
375
367
351
381
396
436
468
476
485
458
450
447
448
464
475
457
449
468
498
531
473
420
397
410
425
437
435
463
499
524
540
524
502
500
482
463
488
521
529
537
541
542
531
526
513
513
524
540
564
534
488
509
523
488
477
469
493
511
496
495
487
517
543
550
533
495
448
442
497
531
542
529
511
502
473
474
532
580
606
589
544
530
525
517
520
532
531
533
497
455
434
437
504
558
571
547
493
487
509
521
520
518
512
481
464
510
549
555
569
551
529
521
498
470
453
472
513
525
536
529
525
523
531
508
495
478
491
519
514
503
528
562
562
541
507
482
463
452
472
506
537
554
554
559
554
541
528
525
550
555
529
465
439
452
470
465
459
472
532
613
603
535
479
458
464
464
490
515
489
479
486
488
474
455
450
437
439
462
496
538
552
541
507
468
447
445
471
519
562
607
647
680
699
688
709
694
632
534
461
425
389
368
356
320
285
288
361
424
457
504
504
509
564
570
532
546
613
634
613
600
586
561
568
545
532
569
622
621
617
606
585
589
577
527
534
569
574
556
544
544
542
521
501
510
547
602
635
600
533
558
583
566
540
559
580
567
545
565
583
579
582
519
485
522
556
564
561
552
556
559
521
509
538
591
609
578
578
585
565
535
554
586
597
583
571
546
521
529
541
554
587
579
562
563
553
521
527
573
598
640
667
633
571
559
554
570
601
592
553
533
550
594
549
454
441
463
461
435
422
419
407
393
386
380
399
401
389
400
396
375
367
377
370
392
420
428
443
437
424
427
446
444
424
399
390
414
435
438
421
411
395
380
376
374
414
461
447
413
400
431
470
463
461
488
498
518
495
472
442
423
459
488
481
460
459
451
455
459
459
479
490
502
503
517
518
496
473
469
475
496
499
445
425
450
468
503
521
513
503
494
532
554
519
495
485
478
452
451
500
517
481
456
444
439
446
471
473
457
459
472
509
510
481
488
487
463
464
460
444
451
484
533
568
556
550
531
486
455
447
444
452
436
451
482
503
501
494
497
485
470
451
449
465
486
500
490
489
499
526
536
520
492
487
479
468
465
457
468
468
500
542
551
542
511
478
477
491
495
504
513
544
542
520
493
496
494
476
473
483
495
518
547
559
555
512
481
471
481
501
494
479
460
440
428
462
499
502
481
466
469
460
460
461
481
518
491
449
447
491
499
497
509
500
502
516
510
509
504
538
581
619
650
694
715
731
727
690
590
513
451
384
298
242
268
320
339
335
320
358
412
445
462
484
476
451
488
539
551
504
468
473
479
461
470
509
531
501
487
487
495
516
515
505
497
496
501
491
490
524
535
537
529
512
497
470
463
470
482
495
491
464
452
481
498
491
465
468
503
524
532
521
500
463
466
514
533
543
554
546
524
513
533
531
530
551
536
529
522
522
522
526
542
562
517
482
471
480
489
511
553
575
578
575
581
587
588
579
581
598
605
567
537
542
552
538
484
494
532
531
542
572
543
500
514
540
501
436
406
420
421
394
377
381
391
401
425
442
438
418
386
379
397
400
399
403
398
350
359
389
391
399
423
412
397
395
408
419
420
424
430
470
482
465
451
415
373
394
444
455
450
435
440
445
454
468
494
524
544
534
493
460
450
431
462
472
474
465
487
516
521
516
483
467
495
523
541
515
468
454
475
501
517
526
499
451
433
451
477
478
478
495
494
477
472
504
545
521
456
457
502
526
506
496
527
529
508
525
537
527
465
468
493
480
455
468
503
500
486
513
548
567
558
533
506
495
495
475
454
463
467
467
497
533
535
518
515
523
552
592
588
546
519
515
528
526
515
517
538
548
505
452
441
451
483
537
567
571
570
540
492
475
494
521
545
543
549
543
525
526
534
544
553
526
536
518
500
504
501
513
502
499
495
497
508
533
546
564
571
552
553
558
546
520
529
538
575
591
574
573
598
585
541
514
520
537
543
519
505
476
457
478
510
538
549
569
562
544
534
530
535
515
510
504
495
491
473
491
513
533
533
509
508
554
582
605
612
598
593
621
674
724
734
714
702
673
633
593
521
440
390
368
367
360
367
389
399
426
449
467
492
561
587
576
547
554
564
570
567
559
553
527
519
540
551
571
615
630
619
598
566
538
547
561
555
536
539
539
561
597
586
558
556
549
539
540
524
527
540
521
542
554
556
543
555
568
574
604
608
595
595
583
535
530
604
636
578
509
488
508
527
566
597
607
612
586
579
591
537
487
485
534
568
554
546
568
602
616
628
648
656
627
609
612
614
622
633
660
658
616
591
628
645
654
681
707
727
700
605
548
559
555
529
512
516
541
536
498
449
428
415
426
454
451
452
471
500
518
508
473
441
419
444
469
441
436
467
497
478
454
448
437
440
471
488
478
438
431
460
471
462
472
512
547
539
496
455
437
449
448
484
495
503
501
485
488
494
506
503
487
465
490
521
542
549
549
557
526
483
459
454
469
490
503
528
554
546
460
404
431
482
522
534
525
489
492
516
516
470
436
446
443
454
468
489
507
521
538
548
496
481
479
485
539
574
562
507
483
517
523
504
502
494
479
495
508
513
533
537
523
502
504
497
492
512
528
551
519
460
451
494
519
530
498
476
480
496
526
530
514
529
559
546
501
483
492
508
506
489
484
512
539
530
535
521
480
480
536
522
498
513
526
535
538
538
509
502
522
520
497
476
480
501
522
523
525
569
614
607
542
486
481
504
522
510
491
491
474
488
507
522
539
551
576
579
541
501
481
493
505
495
484
503
540
558
553
528
487
464
471
500
544
585
601
586
553
512
470
476
510
519
527
542
525
494
486
527
569
548
525
531
532
539
547
534
540
564
579
584
586
557
526
541
570
555
544
545
520
516
520
511
523
582
636
644
579
488
474
501
509
487
491
531
522
499
497
513
561
578
544
504
485
491
510
516
507
518
531
535
526
537
560
576
549
517
495
464
475
536
568
568
548
560
612
663
698
729
726
696
664
622
603
583
553
483
398
362
353
363
396
403
398
433
474
520
532
526
534
534
498
465
493
548
555
565
577
562
553
538
526
528
542
542
544
566
586
611
601
597
585
576
567
543
580
614
566
526
540
541
549
571
555
531
530
540
562
565
577
578
562
553
565
577
569
581
607
609
597
570
543
524
513
556
634
656
604
560
551
549
565
603
624
615
599
607
615
595
555
523
544
569
603
626
600
559
571
628
657
633
597
584
592
606
607
605
616
614
607
591
606
627
639
630
609
573
526
507
543
603
600
581
550
527
511
524
515
471
463
484
483
467
461
464
455
428
408
411
417
439
407
384
390
397
410
436
456
469
447
412
417
455
496
485
459
423
434
482
542
547
523
497
493
500
520
533
534
513
502
505
498
475
476
473
478
482
497
525
509
492
484
470
488
521
538
541
543
529
518
511
537
569
566
553
527
503
498
498
498
527
529
529
514
526
516
514
528
551
550
538
518
495
494
509
521
539
526
488
488
503
515
538
585
617
625
601
534
487
518
565
563
559
575
580
564
550
554
543
524
543
577
570
557
533
523
506
499
500
483
484
533
567
552
541
547
537
534
541
578
599
596
557
542
554
563
569
565
548
545
532
533
520
510
549
574
568
559
555
573
552
534
544
532
518
507
522
544
568
549
519
517
508
516
507
517
566
610
618
590
589
591
562
543
537
535
518
537
564
537
503
509
531
529
563
579
543
505
496
490
494
515
546
575
590
570
542
545
571
595
611
632
603
537
498
508
547
564
557
542
526
510
508
536
536
548
546
564
554
555
566
566
560
564
569
546
537
558
584
582
582
551
531
530
527
508
478
477
450
457
479
501
565
608
574
496
482
472
496
551
577
562
544
537
544
548
541
547
569
592
560
497
483
515
583
621
612
638
682
712
727
755
755
696
631
534
457
384
324
295
320
350
357
378
429
489
502
498
499
493
515
518
546
573
569
539
504
505
553
583
604
616
612
624
608
545
494
480
508
536
573
600
572
553
552
549
537
525
506
488
491
497
498
529
556
572
572
601
625
622
625
619
567
500
488
518
534
521
517
572
621
620
565
503
488
490
486
533
577
595
585
560
523
519
519
544
543
569
580
566
578
576
576
588
618
608
579
577
571
595
615
604
567
539
523
561
609
633
646
648
618
577
560
565
590
573
519
517
543
594
614
601
575
544
525
495
454
395
349
350
376
413
386
323
308
350
379
378
335
342
379
413
418
395
341
334
382
429
414
426
460
469
423
392
382
383
405
413
431
436
422
402
386
402
430
441
430
425
429
432
424
418
429
457
470
462
465
454
430
423
458
476
481
494
493
495
486
481
479
488
491
491
458
411
392
413
459
495
506
524
500
469
458
439
457
469
447
459
485
507
514
483
451
444
462
472
505
520
513
510
489
507
524
529
491
461
475
498
498
477
495
505
504
533
541
527
503
495
509
485
476
507
532
494
449
460
491
509
537
555
512
454
442
491
525
502
512
541
553
545
510
487
491
494
500
484
464
443
456
445
451
508
528
518
508
527
518
488
470
464
462
456
431
424
475
525
532
536
559
552
533
504
491
468
473
491
482
473
513
553
555
546
509
440
406
400
437
466
471
465
464
459
436
432
450
486
503
508
496
485
488
517
525
515
528
548
538
547
542
519
517
500
514
522
482
451
468
504
523
549
560
554
496
474
469
458
484
491
483
477
474
474
495
523
558
572
545
550
580
547
506
485
477
496
499
519
550
574
572
568
520
458
430
474
499
516
591
638
660
680
694
724
755
739
699
634
551
472
388
327
318
338
320
310
317
364
430
484
522
542
529
473
406
401
428
459
483
512
534
554
538
505
482
476
470
466
454
465
482
502
506
529
575
597
560
553
527
486
481
518
519
480
500
519
539
530
554
568
554
518
507
537
542
523
490
465
469
503
510
489
473
464
477
496
535
579
586
536
494
497
510
482
480
496
488
498
520
525
520
527
563
588
581
577
527
508
549
568
554
566
605
632
608
524
491
499
529
553
557
539
536
567
591
583
538
529
559
574
597
584
572
599
603
516
475
479
455
458
473
465
473
492
485
467
459
465
433
401
412
458
458
438
434
408
402
412
398
402
415
424
414
391
379
404
433
399
387
416
457
465
441
429
409
412
419
435
429
398
375
368
364
394
448
452
445
459
472
442
424
454
483
492
476
453
423
396
401
431
443
456
481
495
464
453
502
544
496
469
458
440
424
424
437
426
427
427
443
482
518
526
504
481
455
454
453
460
495
510
486
473
483
495
469
469
501
529
530
518
511
509
470
436
434
430
415
390
415
443
458
459
478
489
483
466
445
436
427
384
424
500
509
487
493
509
514
502
503
487
483
499
528
533
527
531
506
490
473
488
552
536
478
455
429
411
485
549
540
483
456
460
462
467
495
506
471
426
431
455
492
507
530
553
516
446
424
439
473
495
531
545
529
479
434
430
454
468
481
512
519
510
509
472
460
493
497
504
468
450
509
579
577
518
446
412
401
394
386
385
424
461
517
542
517
507
514
523
513
509
511
545
600
651
714
760
751
696
621
519
443
378
295
264
255
254
318
341
376
422
450
460
446
432
450
450
442
450
495
498
468
495
522
526
528
499
472
457
438
406
430
464
496
520
501
458
458
491
489
480
459
451
464
453
438
474
483
468
478
519
535
477
468
481
480
467
482
496
496
496
488
467
463
478
519
551
551
521
481
474
502
574
581
522
494
489
494
518
542
528
500
493
484
500
505
495
498
503
510
500
454
415
424
447
462
488
519
541
518
497
526
571
601
603
548
501
484
475
459
421
424
444
460
452
442
441
438
437
441
416
367
320
309
320
337
336
328
350
373
343
347
367
387
385
400
440
446
410
356
320
301
299
306
309
348
387
416
459
482
460
425
429
449
442
431
406
375
339
331
385
440
473
493
513
531
502
446
429
459
469
437
429
415
409
439
448
453
473
513
526
506
509
488
463
450
481
510
516
506
493
492
487
485
457
464
478
468
488
507
505
487
504
515
529
538
520
490
473
457
477
515
546
563
585
608
623
587
535
465
416
401
440
503
532
512
489
479
497
525
512
512
524
525
528
526
497
486
511
534
565
617
624
599
530
461
428
416
448
481
470
484
509
515
516
520
556
593
623
615
542
488
461
469
506
551
579
565
535
529
555
562
564
546
535
551
570
542
516
489
481
489
505
503
518
527
527
521
521
544
569
582
556
516
531
543
558
565
558
552
524
507
495
524
548
532
532
544
537
545
567
562
538
543
563
573
577
537
491
488
497
496
517
544
549
511
486
479
462
461
486
482
464
448
477
492
499
507
515
510
534
559
554
551
584
622
673
691
685
702
708
695
670
645
638
610
555
500
443
415
370
321
298
301
328
375
410
414
450
503
530
530
526
527
512
517
539
556
571
539
520
544
542
538
586
630
617
560
535
527
538
552
560
545
519
521
510
507
529
574
585
567
572
564
560
547
525
495
481
502
549
561
555
557
538
548
536
529
547
554
550
559
566
536
512
540
569
557
567
595
613
598
557
523
521
538
535
498
491
530
576
617
586
551
511
505
524
521
536
582
609
623
608
601
605
599
596
597
634
649
620
602
583
590
636
643
618
591
547
520
535
512
481
483
483
454
442
423
375
355
357
385
416
491
509
456
412
424
428
443
477
470
439
412
408
406
377
370
367
374
426
487
498
442
405
412
387
371
360
346
387
466
506
517
492
491
517
527
481
430
429
456
460
458
452
461
487
522
572
576
555
530
510
515
506
497
464
445
476
520
534
527
499
464
405
366
401
432
431
446
468
525
565
576
546
489
504
550
560
542
518
493
505
538
544
504
459
465
517
543
509
501
505
497
479
468
427
420
429
444
474
498
485
488
506
541
572
561
538
497
489
487
466
473
522
579
582
567
573
578
548
505
491
523
530
505
470
436
428
470
524
520
496
485
466
416
415
479
557
591
601
601
564
549
551
519
479
464
464
484
488
486
482
493
532
569
550
552
559
541
527
500
462
479
530
562
549
507
471
458
516
542
506
492
476
452
470
487
491
516
545
557
534
543
521
505
543
554
544
556
554
532
501
463
466
511
526
531
528
511
483
450
470
494
498
515
489
502
551
554
524
495
475
474
483
492
528
589
608
578
543
506
487
492
538
567
596
649
653
612
570
549
562
532
484
422
375
377
366
373
429
483
520
493
465
468
482
513
579
621
612
554
511
494
473
474
508
549
559
556
563
548
513
502
514
557
585
513
498
553
597
591
568
547
524
494
462
438
450
499
537
566
605
600
567
543
525
496
488
521
591
590
534
514
515
522
504
513
552
572
547
519
497
472
472
481
498
480
489
542
591
645
627
599
606
578
527
516
562
598
592
565
547
527
513
508
516
537
574
590
570
547
521
532
566
592
560
540
564
571
538
540
554
553
540
557
586
572
536
542
545
531
560
573
506
468
444
424
447
477
503
519
506
427
375
384
415
436
430
451
523
557
506
466
446
422
408
395
390
388
421
492
509
490
502
486
483
498
524
539
518
484
477
480
485
493
531
567
572
622
680
647
527
423
393
409
450
496
504
525
537
553
540
531
533
558
568
564
570
541
536
569
580
557
536
527
533
515
508
496
485
502
538
545
529
556
585
553
536
500
494
496
501
519
543
559
554
560
581
587
595
626
636
577
510
485
483
493
506
522
541
555
566
558
544
499
471
476
490
525
580
612
625
634
615
578
550
556
575
622
640
603
589
573
534
503
484
488
511
530
551
540
550
558
577
621
639
659
674
589
510
528
582
601
586
560
554
562
558
572
579
553
529
541
549
520
508
508
551
610
610
595
547
538
528
512
536
545
568
597
602
625
643
630
636
689
720
695
662
681
698
682
628
556
479
417
393
404
445
470
463
439
432
433
456
497
546
575
577
566
554
568
590
595
580
631
630
598
572
554
563
588
591
602
631
632
622
566
531
518
531
562
594
608
593
586
577
533
513
535
542
524
554
588
622
633
634
611
565
553
562
561
547
544
588
635
660
640
561
493
490
527
579
619
608
580
565
588
604
571
558
582
631
650
632
663
670
662
626
616
615
598
571
583
615
641
661
634
614
601
601
619
659
724
769
773
765
735
667
611
591
604
593
558
545
548
558
574
591
553
527
505
488
503
526
510
516
512
476
477
499
503
508
523
536
537
503
469
444
464
474
501
574
582
545
510
522
531
535
517
497
475
476
473
495
535
537
499
458
440
444
449
468
477
490
500
490
481
476
463
464
493
535
590
605
580
529
501
505
514
532
561
568
566
569
600
583
569
552
547
550
559
554
560
556
485
453
474
500
502
492
478
471
467
496
537
546
574
586
559
550
554
552
557
584
623
623
598
552
510
509
507
515
546
530
518
506
542
585
569
541
532
521
522
539
580
621
646
638
601
518
496
486
464
453
479
502
516
537
588
578
530
502
536
542
542
575
590
591
598
586
581
598
623
622
596
590
624
631
597
561
563
554
503
469
489
532
564
556
530
497
503
530
532
504
501
493
480
472
485
517
528
531
557
575
557
535
549
585
616
622
588
545
509
509
549
570
596
624
641
644
653
669
653
639
607
568
542
536
525
481
424
413
473
531
524
554
608
592
532
488
470
484
470
454
501
537
548
578
577
588
590
559
541
538
517
516
545
569
574
599
577
528
516
529
548
549
520
514
540
558
549
542
534
495
470
450
447
464
491
540
572
551
538
526
534
530
538
537
534
554
549
537
536
545
628
657
607
570
603
628
602
600
574
501
478
512
499
455
472
497
549
593
607
590
577
572
568
546
533
526
560
604
623
606
579
575
580
574
608
602
570
568
570
552
535
558
582
561
495
480
506
494
454
434
460
472
481
518
521
498
479
463
456
467
472
460
455
462
447
423
409
436
471
488
501
488
482
482
492
493
465
447
440
453
443
481
534
563
564
535
496
491
497
494
482
434
393
413
430
481
537
550
525
500
497
517
520
488
456
464
478
513
523
506
504
473
460
485
535
525
519
535
530
532
529
488
478
477
480
510
532
514
491
497
487
466
461
475
488
518
556
519
449
418
434
439
430
438
488
520
508
503
531
511
487
495
499
485
477
486
505
485
463
471
496
515
519
510
507
495
491
467
437
422
449
479
493
494
504
485
435
430
443
459
473
453
470
509
515
517
520
507
498
502
492
464
455
469
475
483
497
480
451
448
481
510
492
497
521
515
474
457
473
465
448
459
485
509
498
472
455
451
437
441
500
576
614
584
509
443
424
427
432
423
434
456
473
515
525
511
515
494
437
406
413
428
486
526
544
563
581
539
502
499
501
484
462
453
489
520
498
468
465
478
518
515
493
488
489
489
498
480
466
460
463
464
486
514
512
533
551
530
518
508
497
492
486
500
498
489
466
483
531
561
532
482
446
455
449
446
450
496
547
521
484
489
501
501
480
505
550
560
575
590
567
515
450
442
461
450
453
474
495
513
545
566
527
495
466
470
499
498
499
497
503
483
454
427
462
511
543
534
521
521
524
545
566
530
497
500
507
525
526
509
496
501
502
471
447
406
426
492
510
491
486
489
502
528
536
518
499
453
430
457
483
527
559
581
583
541
496
494
487
452
438
455
499
491
454
470
492
479
450
449
466
450
414
419
430
465
509
487
456
454
431
398
344
386
484
526
491
464
473
481
462
422
414
407
397
417
458
454
443
460
457
441
449
468
472
456
489
479
451
455
410
405
439
465
482
482
490
499
483
452
465
476
498
531
562
564
541
511
490
462
463
463
454
450
426
406
417
432
438
434
441
444
459
459
449
422
394
410
409
428
464
485
499
496
479
458
460
478
455
435
454
478
502
502
481
461
467
460
439
417
412
417
450
511
539
513
512
551
549
513
497
499
466
387
344
354
359
350
371
354
354
401
403
424
438
452
479
473
422
413
426
451
477
475
440
422
446
447
450
433
397
407
474
493
464
420
405
416
421
406
425
446
498
536
550
516
478
459
435
430
423
416
447
484
496
468
461
452
425
421
426
434
440
471
490
499
499
458
419
445
467
479
476
486
492
505
512
498
458
426
394
413
445
463
466
456
463
510
562
569
527
503
477
463
465
487
544
558
500
436
418
446
482
551
569
572
575
525
478
441
472
524
527
501
495
494
527
531
472
409
366
353
390
405
403
414
438
450
465
469
447
436
410
398
387
401
444
489
477
439
407
390
371
347
342
356
392
460
477
393
361
372
401
433
459
468
439
419
462
532
520
455
408
404
424
412
406
459
482
447
433
426
424
448
489
473
480
521
530
513
494
453
435
448
472
484
485
512
529
521
499
488
506
494
485
485
485
489
489
484
515
537
535
553
556
538
515
516
507
484
476
470
479
484
496
494
490
496
508
539
532
516
490
469
481
484
475
476
512
517
507
500
499
526
541
538
508
500
480
445
442
481
515
528
540
519
494
491
489
520
531
529
500
467
465
463
467
508
529
543
520
477
462
462
457
454
479
513
481
468
504
542
559
561
559
534
526
493
441
456
482
474
472
471
443
435
445
481
535
556
550
538
532
536
520
495
480
492
492
480
466
464
460
490
538
548
497
451
418
423
457
486
491
486
484
471
455
470
461
444
454
477
470
455
464
463
476
514
570
584
550
526
524
506
514
520
524
507
501
518
538
541
509
483
485
514
531
550
590
599
549
523
501
499
500
500
472
465
473
503
534
520
488
505
529
513
510
520
551
575
562
563
549
574
573
573
566
556
564
556
560
546
566
570
575
582
576
547
519
513
552
581
567
533
527
535
493
469
468
492
494
484
502
536
563
583
598
618
599
547
508
514
517
505
510
553
545
509
474
472
502
472
462
483
470
481
506
560
560
524
497
504
539
547
557
525
498
483
485
475
469
507
550
547
544
553
504
455
460
470
504
522
500
475
482
513
514
474
423
406
433
453
457
484
492
508
519
500
493
481
468
474
509
522
526
531
531
525
504
472
440
473
491
470
444
441
492
520
546
537
508
501
534
572
584
576
517
478
473
465
434
393
391
431
460
459
444
455
485
493
488
495
478
471
507
545
540
539
535
500
456
439
435
432
448
467
488
480
459
460
498
554
558
552
568
596
578
494
437
427
430
447
472
466
486
536
563
542
535
529
487
461
449
462
469
447
463
493
544
574
577
547
536
532
513
523
543
544
498
447
462
467
466
506
543
528
500
487
505
515
529
548
551
523
498
514
546
535
538
531
541
559
576
563
548
553
563
559
540
521
535
570
584
601
606
562
559
533
502
489
484
503
518
517
514
534
550
565
523
513
512
502
485
480
467
451
444
436
420
377
366
393
441
444
443
418
414
450
458
452
442
438
466
499
488
454
442
454
424
392
414
465
517
523
476
452
438
462
525
530
467
422
420
432
455
485
495
508
511
537
562
526
503
500
497
495
481
488
479
456
463
492
503
478
497
560
603
585
532
486
450
436
419
415
443
481
519
564
562
528
497
464
462
513
569
587
608
629
582
499
441
417
436
470
515
547
568
556
501
468
454
465
472
474
474
450
453
482
519
563
584
571
532
536
523
531
563
584
576
556
577
555
553
582
554
491
455
483
491
473
482
494
496
523
523
505
498
489
480
492
521
525
512
561
612
575
550
546
537
500
494
504
514
509
509
515
517
502
468
436
444
478
502
507
555
569
550
499
455
452
483
522
534
529
525
494
475
507
518
522
537
550
546
499
497
513
504
506
501
500
519
537
519
480
526
578
594
555
524
500
464
473
491
480
443
430
475
539
570
610
611
572
521
511
510
512
500
482
472
464
505
556
556
525
499
508
511
513
503
486
491
507
486
481
497
531
545
549
567
570
529
503
514
524
546
559
522
503
501
502
493
491
496
511
522
529
548
567
523
493
492
480
469
461
520
565
552
525
493
482
471
461
483
496
529
534
529
574
575
523
498
495
492
508
544
561
567
559
518
481
453
464
459
469
478
513
534
515
507
544
596
592
545
535
515
495
491
531
556
542
518
493
482
473
490
515
521
533
549
583
578
537
477
458
486
500
501
532
550
536
521
537
531
548
547
537
559
553
575
615
635
641
648
653
644
635
627
573
533
539
531
546
531
490
473
493
459
440
436
454
474
473
477
511
539
553
572
577
587
576
548
550
561
572
561
556
532
518
498
507
556
607
631
608
580
527
496
505
496
483
481
505
549
578
567
526
470
420
419
459
511
552
596
613
565
520
502
499
528
590
631
620
608
590
522
472
508
558
546
513
508
528
549
551
535
540
544
537
517
527
551
547
576
588
562
532
534
525
485
506
548
556
525
501
524
553
585
569
555
542
552
551
535
535
519
527
555
603
628
611
590
607
603
588
593
591
548
533
543
560
521
497
537
541
499
456
440
439
458
472
480
458
435
411
399
417
413
422
444
476
483
474
448
417
435
473
472
465
471
492
492
508
495
453
449
457
461
456
458
449
401
421
470
510
508
485
487
518
531
490
460
482
489
518
517
517
505
469
454
452
449
481
531
528
495
489
483
475
500
504
504
515
492
463
457
462
464
455
460
444
482
506
528
558
572
517
482
467
447
449
462
514
562
574
565
552
537
499
480
463
468
487
486
480
532
551
538
514
521
529
495
450
421
458
475
478
484
492
508
540
551
566
560
506
465
464
472
484
485
512
562
612
617
609
589
549
505
468
457
484
488
505
545
546
496
477
484
488
486
476
474
503
515
529
551
546
521
514
501
533
556
553
507
484
484
487
528
579
588
555
490
469
453
477
471
453
456
502
539
535
533
544
572
581
570
546
516
495
503
540
575
587
557
494
456
445
449
459
492
522
549
562
548
525
499
472
458
462
458
462
483
519
546
566
560
565
554
556
547
491
427
455
497
525
532
504
482
498
506
523
556
572
555
501
431
397
463
571
592
562
527
535
525
514
513
535
555
529
520
548
596
601
555
517
507
491
459
508
547
573
559
503
465
451
442
437
472
522
574
604
593
555
516
493
481
495
478
453
444
491
562
587
577
505
480
529
539
529
506
494
505
510
523
519
504
537
548
532
530
548
544
539
535
529
517
502
485
478
501
544
542
525
492
478
512
529
497
488
508
538
559
569
569
577
597
578
500
452
456
496
539
591
658
679
681
668
664
659
651
652
621
582
524
494
448
431
441
431
402
397
416
421
475
530
548
544
559
562
545
528
536
566
601
606
626
630
608
571
547
526
500
498
509
495
525
574
598
629
610
544
507
493
483
495
520
552
560
541
509
479
490
508
555
591
557
507
497
544
539
526
556
556
547
506
497
505
496
511
551
523
511
545
604
624
601
582
564
539
567
609
623
586
537
480
409
410
497
527
488
470
495
522
541
580
571
529
518
526
549
563
560
562
540
507
517
546
566
587
601
577
607
620
607
601
572
527
479
475
482
473
476
480
498
501
471
416
351
301
334
395
431
454
484
493
449
410
395
386
410
435
442
446
429
406
399
355
337
339
354
373
370
353
351
371
388
421
444
417
376
378
381
415
433
439
422
416
418
444
444
452
466
492
520
543
520
477
435
404
379
369
373
371
400
416
413
437
465
500
524
525
475
447
398
377
383
393
408
444
449
451
483
475
449
453
439
420
430
416
391
404
428
448
433
412
405
398
392
367
364
376
373
379
413
437
456
484
517
537
500
445
442
446
454
466
491
503
505
494
518
500
435
418
408
389
403
447
482
524
525
516
502
481
466
444
464
477
457
463
478
480
477
464
451
506
546
560
620
656
608
547
502
478
466
485
503
481
446
442
442
458
480
450
455
489
508
523
520
517
492
457
462
520
555
543
540
522
507
503
458
433
451
485
484
505
529
555
554
520
525
588
596
591
588
575
579
602
597
585
582
541
542
567
532
474
452
468
492
515
503
493
519
549
577
584
586
563
514
485
505
517
570
604
614
601
579
530
499
515
543
568
608
625
603
543
499
477
474
482
482
470
493
505
493
507
523
515
491
480
480
513
549
576
543
513
522
525
537
570
605
631
629
609
565
535
536
535
513
490
471
473
493
525
544
516
491
535
592
576
518
475
474
483
488
488
499
508
531
557
555
545
546
532
549
598
678
760
785
753
734
711
646
585
507
437
391
363
363
382
404
436
466
483
496
514
511
509
536
560
567
563
566
568
569
573
542
533
559
568
550
515
498
532
548
573
589
598
606
583
558
543
576
579
564
568
564
556
562
552
542
532
545
593
642
649
612
581
578
585
565
562
570
568
561
566
560
544
549
566
589
586
553
548
592
619
621
605
584
552
531
529
541
534
557
558
564
557
552
578
619
639
614
566
545
556
577
579
608
642
659
658
658
641
599
568
555
557
597
643
640
642
660
652
638
614
575
560
573
586
578
557
537
531
512
502
494
448
445
485
480
461
481
451
403
401
425
458
480
477
471
459
443
431
411
381
392
452
491
473
449
442
451
450
