252
277
301
309
292
261
229
216
226
251
276
512
510
509
510
513
512
509
508
507
507
508
510
510
510
509
508
508
507
506
505
506
508
508
507
506
507
508
510
511
511
511
510
509
509
509
510
509
508
508
507
507
508
510
511
512
511
509
508
507
506
507
509
511
509
507
506
505
505
507
511
514
516
515
513
510
509
510
510
510
510
511
512
512
511
510
509
510
510
511
510
510
512
512
512
512
512
512
510
508
506
507
509
509
507
505
505
504
504
504
508
510
512
512
511
511
510
509
509
508
508
509
510
510
512
511
512
513
513
513
511
508
507
507
508
508
507
506
505
505
505
505
506
508
509
509
507
506
507
507
506
505
506
506
507
505
505
505
506
508
508
508
509
509
509
508
511
512
511
509
508
506
506
507
508
508
508
507
507
507
509
509
509
512
513
513
512
511
510
510
510
511
511
511
509
508
508
508
509
510
510
510
510
508
507
507
508
509
509
509
510
510
510
509
510
512
512
513
514
513
512
513
512
511
511
512
511
510
508
508
508
509
510
511
511
511
511
512
514
516
516
516
516
515
513
513
513
514
513
512
511
510
510
511
513
515
515
514
512
510
509
508
509
510
512
512
510
508
507
508
510
512
512
510
509
509
509
509
509
508
509
509
510
510
511
511
512
513
512
512
511
510
509
509
509
509
510
509
507
505
504
504
504
506
507
507
507
505
504
505
505
505
507
507
506
505
504
503
504
507
508
508
508
507
506
508
510
514
515
515
513
511
512
515
519
522
523
523
523
521
521
524
527
530
530
530
530
530
531
532
536
541
544
544
542
540
540
543
547
552
556
556
556
556
556
557
558
559
559
557
554
550
547
546
545
545
545
545
542
539
535
533
534
537
540
539
536
532
530
531
532
536
538
538
536
532
530
531
533
537
541
542
539
535
533
533
536
540
545
546
544
538
534
534
536
540
544
545
542
537
532
531
534
539
543
544
541
536
533
533
534
539
542
542
537
529
524
523
528
533
537
537
534
527
522
522
526
531
535
536
531
525
520
519
522
526
530
530
526
521
518
517
518
522
526
525
521
513
507
504
507
513
519
519
515
509
505
505
510
519
525
527
523
516
509
508
513
521
526
526
522
515
509
508
513
521
527
527
524
518
514
515
520
526
532
534
531
524
518
516
520
526
531
531
528
523
518
518
522
529
535
539
536
529
523
522
526
534
542
544
540
532
524
521
526
535
543
543
537
527
517
513
514
520
528
529
523
513
504
499
501
508
514
515
507
495
483
477
477
483
490
490
482
466
449
437
433
516
953
1023
940
1023
1023
1023
1023
1023
1023
1023
1023
1023
1023
1023
884
461
241
130
71
39
22
13
8
5
3
3
2
2
1
1
1
87
783
1023
1023
1023
1023
1023
1023
1023
1023
1023
1023
1023
1023
1023
1023
1023
1023
1023
1023
1023
1023
1023
1023
1023
1023
1023
1023
1023
1023
1023
1023
1023
1023
1023
1023
1023
1023
1023
1023
1023
1023
1023
1023
1023
1023
1023
1023
1023
1023
1023
1023
1023
1023
1023
1023
1023
1023
1023
1023
1023
1023
1023
1023
1023
1023
1023
1023
1023
1023
1023
1023
1023
1023
1023
1023
1023
1023
1023
1023
1023
1023
1023
1023
1023
1023
1023
1023
1023
1023
1023
1023
1023
1023
1023
1023
1023
1023
1023
1023
1023
1023
1023
1023
1023
1023
1023
1023
1023
1023
1023
1014
909
874
875
913
928
881
747
525
283
152
82
46
26
15
9
6
4
3
2
2
2
1
1
1
1
1
1
1
1
1
1
1
1
1
1
1
1
1
1
1
1
1
1
1
1
1
1
1
1
1
1
1
1
1
1
1
0
1
1
1
1
1
1
1
1
1
1
1
1
1
0
0
1
1
0
1
1
1
1
1
0
1
1
1
1
1
1
1
0
1
1
0
1
1
0
1
1
1
1
1
1
1
1
1
1
1
1
0
1
1
1
0
1
1
0
1
1
1
1
1
1
1
1
1
1
0
1
1
1
1
1
0
1
1
1
0
1
0
0
1
1
1
0
1
0
1
1
0
1
0
1
1
0
1
1
1
1
1
1
1
1
0
0
1
1
1
1
0
1
1
12
113
185
200
203
204
201
244
355
522
772
1001
1023
1023
1023
1023
1023
963
845
616
317
167
90
49
27
15
9
5
4
3
2
2
1
1
1
1
1
1
1
1
1
1
1
1
1
1
1
1
1
1
1
1
1
1
1
1
1
1
1
1
1
1
1
1
1
1
1
1
1
1
1
1
0
1
1
1
1
1
1
1
1
1
1
1
1
1
1
1
1
1
0
1
1
1
0
1
1
1
1
1
1
1
1
1
1
1
1
1
1
1
1
1
1
1
1
1
1
1
1
1
24
125
253
387
521
651
773
891
1009
1023
1023
1023
1023
1023
1023
1023
1023
1023
1023
1023
1023
1023
1023
1023
1023
1023
1023
1023
1023
1023
1023
1023
1023
1023
1023
1023
1023
1023
1023
1023
1023
1023
1023
1023
1023
1023
1023
1023
1023
1023
1023
1023
723
379
202
109
60
33
19
11
7
5
3
158
862
1023
1023
1023
1023
1023
1023
1023
1023
1023
1023
1023
1023
1023
1023
1023
1023
1023
1023
1023
1023
1023
1023
1023
1023
1023
1023
1023
1023
1023
1023
1023
1023
1023
1023
1023
1023
1023
1023
1023
1023
1023
1023
1023
1023
1023
1023
1023
1023
1023
1023
1023
1023
1023
1023
1023
1023
1023
1023
1023
1023
1023
1023
1023
1023
1023
1023
1023
1023
1023
1023
1023
1023
1023
1023
1023
1023
1023
1023
1023
1023
1023
1023
1023
1023
1023
1023
1023
1023
1023
1023
1023
1023
1023
1023
1023
1023
1023
1023
1023
1023
1023
1023
1023
1023
1023
1023
1023
1023
1023
1023
1023
1023
1023
1023
1023
1023
1023
1023
1023
1023
1023
1023
1023
1023
1023
1023
1023
1023
1023
1023
1023
1023
1023
1023
1023
1023
1023
1023
1023
1023
1023
1023
1015
994
883
773
725
699
659
602
555
511
461
416
369
307
251
193
144
141
114
70
45
31
17
27
58
33
17
9
5
4
2
2
1
1
1
1
1
1
3
16
17
9
4
3
2
1
1
1
1
1
1
1
1
1
1
1
1
1
1
1
1
1
1
1
1
1
1
1
1
1
1
1
1
0
1
1
1
1
1
1
1
1
1
0
0
1
1
1
0
1
1
0
0
1
1
1
1
1
1
1
0
0
1
1
1
0
1
1
1
1
1
0
1
0
1
1
1
0
1
0
0
1
1
1
1
1
1
1
1
0
0
1
1
0
1
1
1
1
0
1
1
1
1
1
1
1
1
1
1
1
0
1
1
1
1
1
1
0
0
0
1
0
1
1
0
0
1
1
1
0
1
1
1
0
1
0
1
1
1
1
1
1
0
1
0
1
0
1
1
1
1
1
1
1
1
1
1
1
1
1
1
1
1
1
1
1
0
1
1
1
1
0
1
1
1
1
1
1
1
0
1
1
1
1
1
1
1
1
1
1
1
1
1
0
1
0
1
1
1
1
1
1
1
0
1
1
0
0
1
1
1
1
1
1
0
1
0
1
1
1
1
1
1
1
0
1
0
1
1
1
1
1
1
1
1
1
1
1
1
1
1
0
1
1
1
0
1
1
0
0
1
1
1
0
1
1
0
1
1
1
1
1
1
0
1
1
1
1
1
0
0
1
0
0
1
1
0
1
1
1
1
1
1
1
0
0
0
1
1
1
0
1
0
0
1
0
1
1
1
1
1
1
1
1
0
0
1
1
1
1
0
1
1
0
1
1
0
0
1
1
1
1
1
1
0
0
1
1
1
10
85
177
272
365
426
421
330
234
151
78
41
22
12
7
4
3
2
1
1
1
1
1
1
1
1
1
1
1
1
1
1
1
1
1
1
1
1
7
4
2
2
1
1
2
11
34
44
31
15
8
4
2
3
3
16
50
26
13
18
44
70
51
25
13
7
14
22
53
82
101
119
113
109
130
129
136
174
172
136
121
96
112
133
182
166
147
157
169
194
203
214
190
181
205
229
236
190
137
159
186
204
189
172
150
176
214
242
265
271
243
228
234
224
229
248
239
222
218
224
215
198
187
175
144
182
237
210
168
151
144
141
145
218
254
191
139
159
176
177
170
180
239
275
226
169
150
135
151
190
208
198
213
235
252
251
226
235
209
202
235
232
254
258
248
256
274
273
256
242
254
244
247
251
271
300
341
376
342
301
283
279
280
284
247
250
320
372
366
350
317
299
314
342
339
337
316
306
319
362
404
412
364
342
330
297
299
305
323
349
342
360
384
412
419
415
416
404
352
315
319
344
386
396
365
367
392
395
380
382
392
408
416
385
395
440
476
424
391
405
406
412
425
414
389
357
350
392
447
470
460
447
471
486
466
457
446
414
389
351
405
489
508
492
467
461
455
418
435
454
467
468
456
448
449
463
484
484
485
464
456
463
470
451
438
432
446
486
512
518
561
595
569
472
411
418
466
477
444
418
404
459
509
530
516
447
401
412
466
509
522
533
540
510
455
444
457
471
464
451
487
522
533
501
453
430
465
466
455
493
508
476
458
460
470
515
585
593
530
466
465
453
449
463
475
505
519
493
499
515
502
514
510
531
519
492
484
533
551
548
548
537
547
530
526
518
508
489
496
488
512
542
519
483
468
492
544
589
608
605
590
542
486
462
451
522
580
574
582
570
551
512
490
493
515
531
554
544
516
511
518
518
491
469
474
474
450
503
540
568
583
531
497
483
496
531
590
639
700
748
803
871
941
971
919
835
773
702
615
496
407
361
335
373
375
383
400
423
424
441
490
524
513
472
453
455
484
514
500
488
521
497
446
474
520
536
616
676
627
538
465
444
474
520
562
550
521
535
556
550
567
563
540
514
516
548
550
540
540
574
603
617
592
569
569
549
555
571
580
585
581
583
594
619
607
585
575
582
547
509
541
572
612
624
616
637
653
657
656
646
626
595
590
600
609
592
544
568
618
624
636
651
660
662
640
615
586
573
580
570
578
619
625
581
547
535
543
558
583
597
595
585
580
545
540
535
539
563
513
501
515
488
458
446
440
416
466
516
492
473
447
450
476
476
475
481
495
496
498
522
495
414
373
413
450
456
460
479
507
500
497
527
524
500
512
507
498
491
509
538
525
506
500
491
509
548
537
540
548
545
542
531
518
452
448
488
526
541
538
544
552
538
516
508
526
537
543
522
500
513
494
528
567
554
529
517
545
565
541
517
508
528
529
510
523
515
510
511
496
491
529
527
523
531
527
522
527
518
523
508
492
499
549
594
612
588
580
574
547
525
507
461
479
533
571
571
539
511
497
477
494
529
568
604
656
641
569
501
483
513
506
513
543
566
573
594
602
559
547
571
576
560
508
528
536
561
586
600
586
562
566
569
574
591
604
611
583
574
562
548
515
514
522
537
530
541
555
599
661
663
611
543
515
546
583
574
585
619
616
615
618
613
581
550
527
518
551
591
594
574
574
599
612
591
593
598
567
553
559
573
629
643
612
589
591
595
576
599
660
630
588
574
576
572
615
624
649
654
644
625
611
601
556
544
587
613
623
628
631
621
617
638
648
628
620
636
636
608
598
603
617
651
648
635
608
621
646
626
595
579
609
632
652
661
652
655
668
691
669
632
578
549
527
527
573
626
637
631
598
598
595
575
586
576
530
521
552
571
586
582
596
616
648
711
773
847
953
1004
986
931
945
951
924
814
673
553
477
430
410
394
442
491
490
488
494
444
461
502
480
488
522
526
509
498
515
524
543
546
518
496
485
499
512
532
556
551
527
523
587
618
573
536
536
537
533
514
523
540
536
530
528
549
574
561
549
570
565
529
498
509
565
587
591
613
620
621
622
655
651
612
564
524
517
524
524
520
567
619
641
644
647
629
606
612
665
722
724
685
626
620
609
596
589
569
553
586
619
632
624
633
656
603
570
573
620
659
660
614
611
610
582
551
536
545
550
535
520
540
559
560
548
515
479
480
524
485
462
500
536
505
472
467
491
476
455
437
416
434
488
491
454
434
462
485
478
451
445
461
485
514
492
463
470
493
476
471
481
489
480
460
455
453
463
506
518
526
554
522
502
558
582
565
555
521
477
462
483
469
464
495
516
542
533
500
486
516
527
525
519
528
546
561
523
507
503
499
541
562
563
568
576
573
528
479
480
497
502
513
519
532
540
523
503
511
534
561
573
548
511
497
522
518
525
534
525
515
489
488
525
588
601
541
524
509
518
509
513
514
503
505
509
555
592
591
554
549
576
562
524
523
520
511
530
518
535
541
551
592
617
598
548
523
523
531
535
535
537
526
550
544
531
516
548
584
581
548
534
512
522
541
527
525
512
535
548
567
603
580
531
529
554
596
606
566
534
539
531
495
474
485
529
544
539
520
495
513
580
614
590
551
511
524
550
572
573
581
558
535
528
513
509
497
468
505
559
601
605
602
578
549
540
535
521
516
524
561
588
557
534
559
571
521
506
504
542
576
575
561
576
588
560
525
517
512
500
519
531
552
579
584
590
593
578
563
545
539
546
544
571
588
587
590
585
588
574
579
608
609
563
578
592
597
592
577
559
534
543
572
541
506
498
506
514
546
555
543
519
473
486
510
543
568
569
567
573
602
706
755
816
905
969
983
959
897
862
811
705
609
515
405
338
355
369
384
394
398
427
466
467
470
519
539
495
459
447
455
474
498
477
454
468
525
534
505
440
450
479
511
535
537
525
514
512
543
543
485
483
495
512
522
532
557
560
561
545
563
586
606
591
536
521
532
548
531
536
555
531
543
534
554
590
609
607
591
581
543
528
518
575
604
609
627
614
614
593
592
620
639
667
632
559
531
551
612
651
670
638
606
597
592
575
595
625
622
634
645
618
595
611
601
578
580
629
663
653
580
526
503
501
489
467
460
472
503
500
495
537
538
536
551
522
512
488
488
469
448
428
428
442
410
407
445
473
464
475
462
436
432
458
458
451
466
452
427
401
420
475
494
527
549
557
528
498
472
466
465
427
426
433
450
478
504
546
547
520
465
443
496
524
505
520
545
558
556
540
504
480
497
522
546
548
520
474
450
448
472
470
442
452
469
500
525
519
555
537
527
535
560
541
508
479
446
471
517
524
497
473
473
480
508
505
483
476
483
493
520
522
547
504
467
535
569
528
478
475
459
472
505
509
498
496
488
493
531
537
507
509
485
472
502
535
536
519
485
481
470
493
513
526
543
536
563
545
532
497
479
487
479
458
480
502
527
522
536
526
500
509
512
517
519
538
509
499
505
479
453
477
523
553
538
519
505
498
528
545
502
490
501
500
508
516
543
563
513
512
531
525
524
504
488
484
493
515
560
568
521
486
474
485
476
487
529
555
556
533
524
529
522
551
543
529
509
515
521
536
553
563
529
527
517
517
494
474
514
549
555
526
483
464
444
461
513
592
635
614
575
554
538
519
528
505
542
556
556
526
489
519
526
549
584
604
585
554
552
553
529
507
500
507
490
492
488
496
495
515
523
478
451
475
532
553
549
516
457
480
532
568
608
649
709
767
845
928
979
951
882
829
731
606
527
450
376
326
348
368
368
392
401
386
390
405
433
433
458
484
466
464
480
506
477
447
439
467
481
495
524
514
496
497
508
504
516
502
470
470
505
522
550
553
500
472
499
547
573
548
479
451
485
512
526
519
515
525
514
516
537
564
569
574
582
599
582
529
495
486
487
521
579
604
598
594
602
593
604
586
568
563
581
595
587
599
602
577
573
611
628
608
585
576
591
619
632
648
656
645
605
579
568
579
576
557
538
553
543
533
531
535
557
600
612
562
513
509
499
488
476
497
465
434
461
485
498
515
489
452
429
434
426
421
450
393
396
454
489
479
454
459
427
419
442
464
467
439
408
399
415
447
441
448
491
512
500
476
452
443
455
453
447
455
484
496
509
530
528
529
509
473
462
465
493
504
511
529
519
513
502
500
494
475
480
495
507
510
492
472
494
542
545
553
558
521
472
482
480
503
507
512
514
519
526
532
506
507
501
502
501
471
465
475
449
459
519
547
547
547
570
578
580
534
511
488
492
500
528
556
527
518
519
514
515
528
540
543
550
545
549
516
497
496
490
493
483
528
541
534
549
547
540
543
551
570
584
566
507
478
475
478
522
538
510
526
581
604
582
544
492
490
500
515
527
523
515
515
509
482
488
517
528
547
540
515
490
480
519
573
568
508
516
523
518
516
521
532
510
497
461
453
455
441
495
552
576
565
558
533
521
515
501
490
484
479
486
510
510
508
512
503
483
518
533
515
521
528
528
523
498
495
492
528
545
540
566
583
564
525
508
503
499
503
511
521
557
563
565
584
593
568
533
511
555
587
559
507
478
500
546
590
616
602
589
556
533
517
501
494
510
508
509
467
471
496
507
500
491
498
498
506
521
504
520
568
600
618
668
755
858
945
970
944
932
888
819
739
641
516
403
324
296
313
353
375
429
470
462
434
416
420
430
415
433
468
482
445
415
423
441
468
481
497
477
456
484
489
475
481
472
427
437
495
522
571
553
500
464
456
475
492
508
505
477
439
493
559
564
533
536
525
530
526
522
529
517
516
540
536
507
522
538
546
543
559
583
580
560
537
540
563
540
530
562
583
578
586
612
636
626
594
568
567
591
605
602
583
576
637
669
654
605
567
583
569
575
554
573
593
584
607
600
571
548
560
574
571
565
554
522
480
472
506
501
499
501
529
534
496
434
395
388
401
435
461
477
481
456
438
453
444
440
441
442
410
391
392
430
457
493
492
467
456
447
427
421
449
468
475
456
419
438
432
457
472
494
493
459
479
513
514
511
503
480
483
488
482
495
503
507
501
492
512
523
532
509
482
468
475
485
518
507
468
462
461
453
488
537
572
582
524
453
418
426
447
494
526
540
526
510
498
481
484
482
493
491
478
462
474
510
506
476
488
490
456
461
479
506
505
496
495
500
490
523
529
535
492
481
473
444
442
474
493
468
443
462
502
539
528
478
474
494
504
508
505
519
522
506
495
509
482
470
493
528
543
533
502
479
467
458
462
481
483
470
470
444
454
484
536
557
534
499
499
519
501
478
469
484
515
534
511
503
509
529
538
557
535
493
492
497
505
521
513
506
477
496
500
484
458
488
555
593
572
519
509
526
523
547
556
513
485
522
556
546
548
569
556
543
552
546
506
497
482
495
505
501
539
543
544
549
543
535
540
546
542
572
564
520
477
500
556
570
585
576
549
545
584
622
606
564
535
557
549
540
532
538
546
576
580
548
492
506
532
535
552
544
519
499
512
505
501
518
541
556
553
499
465
434
461
437
484
624
629
619
636
664
703
769
828
879
908
912
893
843
796
707
616
509
407
329
303
314
314
318
359
399
431
463
464
464
454
498
505
481
483
442
394
376
397
442
472
477
487
462
435
464
488
507
504
483
487
475
482
481
478
492
482
449
470
497
522
560
596
592
548
520
495
495
471
437
467
507
546
557
594
585
572
551
539
521
517
515
532
563
575
571
590
612
584
548
538
536
537
546
578
576
550
589
606
616
610
606
612
594
585
621
620
635
643
628
613
595
600
584
590
618
648
682
629
543
493
534
546
555
565
537
537
516
515
524
507
512
499
475
474
454
409
393
420
436
446
477
458
419
454
491
492
454
427
402
407
399
384
379
393
401
423
423
439
452
452
469
465
428
400
376
399
450
479
479
444
426
446
452
479
505
514
517
467
422
436
475
463
467
464
482
487
453
441
476
486
506
515
500
473
487
486
500
509
472
449
457
478
500
546
529
498
481
463
443
446
464
452
425
452
504
533
523
531
519
503
475
463
458
468
539
561
542
477
458
476
486
451
453
470
510
525
503
505
498
505
471
455
431
444
494
526
530
525
524
518
509
507
498
533
531
515
510
501
508
525
525
495
474
470
496
515
490
471
475
493
519
541
556
570
531
498
496
505
528
520
519
533
548
542
523
491
487
493
465
513
565
580
575
571
506
474
488
494
513
526
525
526
519
494
497
487
492
495
512
547
552
550
539
510
520
520
511
527
553
551
528
526
512
523
548
546
528
527
521
505
517
535
518
516
534
562
556
536
527
519
515
524
530
522
526
514
486
502
507
533
571
590
580
528
567
599
558
548
560
597
618
584
555
547
541
521
507
511
525
503
490
476
508
558
581
547
507
496
494
503
506
506
511
515
523
490
439
458
563
672
749
795
833
885
929
939
936
881
803
715
610
501
422
374
352
323
327
316
304
307
347
384
417
436
423
450
463
468
480
476
482
466
484
514
546
550
505
453
436
429
431
456
478
478
483
494
539
559
528
488
463
458
468
486
507
515
519
503
513
550
549
554
534
532
536
504
481
496
521
562
589
581
558
545
549
525
493
490
509
523
550
580
582
580
598
569
549
563
625
654
636
589
572
566
572
585
590
621
630
603
593
611
615
588
591
598
584
562
554
591
601
598
626
638
628
585
544
544
559
569
559
558
545
541
530
502
471
457
486
486
457
442
451
429
466
481
447
404
399
430
447
460
448
434
430
412
371
395
423
419
417
434
455
483
465
462
463
464
454
433
419
444
426
429
421
424
469
496
502
479
481
486
479
476
490
490
461
469
470
478
512
531
507
503
514
509
502
457
421
451
510
535
527
511
508
494
492
470
448
470
515
534
530
536
538
516
490
477
488
496
517
501
499
472
456
429
429
469
482
502
521
504
504
500
506
503
504
513
524
504
510
529
543
537
529
512
507
491
483
491
493
500
503
481
502
530
526
490
474
510
545
551
514
507
528
531
532
507
511
502
528
527
512
516
514
518
512
518
548
571
539
493
491
542
549
523
520
545
558
527
516
485
489
531
581
566
530
524
541
543
533
504
500
461
466
488
542
563
554
550
520
527
550
535
510
510
509
487
506
516
543
557
555
565
580
565
541
557
527
495
497
488
512
527
536
521
508
544
593
600
567
524
500
490
465
477
493
522
569
581
562
567
582
540
514
538
545
543
572
608
607
582
575
590
586
572
557
538
560
546
498
507
524
532
528
529
512
501
478
494
533
546
524
483
466
479
501
487
509
517
510
533
569
573
614
705
756
809
869
870
855
868
855
785
686
584
491
414
377
346
340
334
355
381
377
382
412
429
443
445
470
493
500
474
446
439
428
435
443
455
456
466
498
491
450
452
460
484
527
521
510
497
469
420
409
475
505
505
495
494
477
488
507
504
505
527
541
529
526
504
504
500
501
514
544
534
493
491
516
536
540
529
544
564
585
593
603
625
627
597
563
550
542
549
546
510
494
544
600
631
623
595
584
585
585
600
615
599
571
575
595
604
595
574
559
594
627
635
625
592
552
530
533
515
492
519
534
531
482
466
459
470
469
473
489
474
481
482
474
449
429
435
436
429
438
437
442
440
456
441
424
396
394
380
379
370
348
381
436
478
472
445
444
452
450
456
480
489
480
472
433
420
416
428
428
461
487
499
511
512
500
487
475
502
515
477
427
435
474
518
521
508
490
476
468
491
542
565
543
514
491
490
493
477
486
484
477
490
487
492
478
505
520
516
499
477
472
482
510
500
486
487
486
501
533
555
542
531
505
492
493
476
479
486
486
451
423
461
509
510
496
492
516
529
510
480
492
528
464
443
491
528
551
559
544
493
462
468
478
497
495
511
516
512
481
480
507
494
486
499
525
539
524
472
446
452
481
527
584
597
544
489
496
487
481
468
437
443
474
511
535
537
516
504
512
515
528
549
522
503
487
482
488
507
527
535
543
543
517
495
471
471
498
497
494
508
512
518
553
538
497
485
512
542
549
554
520
493
487
525
505
492
526
553
553
531
502
502
509
551
583
558
521
499
469
487
517
517
502
510
525
516
549
551
524
491
492
548
576
579
580
574
570
539
503
495
501
512
483
497
545
539
486
482
487
482
480
495
465
464
492
511
547
560
580
624
677
717
772
821
872
899
895
837
759
710
625
569
507
404
341
316
328
353
364
367
386
396
436
489
500
493
458
453
469
463
478
485
510
507
447
416
429
445
455
475
506
520
521
500
485
491
457
465
480
497
500
514
504
502
516
485
486
503
514
514
515
495
481
507
527
528
528
534
516
564
593
583
540
502
514
550
553
521
508
524
520
534
563
587
576
573
557
566
585
559
545
552
579
617
628
629
621
590
552
541
564
586
624
642
630
568
532
539
561
572
570
564
564
575
577
557
539
522
515
544
551
533
533
503
512
506
493
461
439
445
452
466
497
476
415
406
412
413
421
436
431
415
413
448
448
458
458
459
468
455
427
419
431
437
447
433
418
413
422
463
460
444
471
472
459
452
446
449
453
485
500
500
515
512
461
449
468
486
464
436
473
507
494
497
512
492
523
529
538
517
492
482
487
509
530
525
508
513
521
516
524
542
510
477
456
448
487
528
496
460
461
484
532
552
552
565
572
544
495
505
519
516
518
516
506
492
500
492
482
481
494
487
505
515
516
506
487
485
498
521
551
537
483
464
479
499
540
528
516
512
488
445
478
541
553
537
521
521
518
505
520
531
511
500
513
524
515
522
497
448
445
458
490
512
503
526
552
528
530
536
517
509
514
513
473
459
496
517
529
553
540
508
470
448
449
466
496
513
503
507
489
492
496
512
539
559
556
536
521
519
519
516
520
540
523
479
516
533
535
524
494
451
455
492
496
514
541
527
533
548
538
535
532
542
527
525
520
497
513
567
583
551
546
555
552
567
547
533
544
553
575
575
546
540
516
488
469
447
449
511
551
546
533
552
543
536
544
550
535
527
461
431
470
522
521
525
568
646
709
722
744
786
825
866
880
820
748
686
620
536
447
390
396
401
408
422
413
389
365
354
378
431
432
461
493
503
526
545
513
484
461
442
454
491
482
488
473
470
476
482
519
534
525
488
474
495
511
516
510
489
471
485
492
522
536
527
510
499
507
506
507
503
516
516
498
489
493
498
512
497
487
505
516
493
519
565
581
579
561
570
569
546
562
568
597
597
575
580
549
549
563
542
535
548
591
604
604
611
628
632
609
550
537
557
563
544
545
576
584
576
573
560
571
564
537
504
489
530
555
548
506
496
505
495
462
421
423
451
439
399
372
371
403
447
450
436
427
425
415
407
388
432
465
475
472
449
435
441
438
429
421
404
382
365
396
431
468
478
475
459
484
466
453
452
469
454
429
438
448
444
479
494
486
484
480
495
523
538
531
495
483
486
456
438
448
457
495
496
463
457
487
506
529
540
550
536
504
472
434
433
495
546
524
488
486
528
531
521
493
503
481
462
477
477
477
457
464
472
512
532
512
510
518
516
502
480
503
502
467
448
444
465
495
530
541
507
501
512
496
468
468
487
498
477
430
442
472
517
534
539
541
526
519
505
508
491
479
472
456
469
477
492
502
512
535
535
495
461
467
491
516
505
457
449
471
486
475
472
525
559
561
537
521
504
491
475
474
495
511
496
488
489
509
524
509
494
514
562
553
517
495
482
478
484
484
471
463
481
528
535
516
487
481
472
485
494
496
513
528
519
497
498
484
496
517
535
554
581
544
491
459
423
416
450
469
484
503
510
461
479
502
527
545
525
509
481
484
491
503
482
491
524
517
482
472
501
496
492
500
508
526
538
528
469
456
485
517
531
548
544
510
490
496
529
552
576
558
518
496
502
509
515
529
532
517
493
470
450
457
492
504
520
539
568
574
532
495
447
423
437
470
501
524
542
549
566
600
611
668
755
817
859
867
856
797
705
640
591
547
478
412
368
346
366
415
448
447
427
400
400
430
467
481
454
463
470
471
495
494
478
467
484
510
512
490
485
496
487
455
441
460
523
520
464
443
482
497
524
545
525
504
493
505
523
527
512
490
514
516
509
486
498
491
465
512
556
560
548
550
544
539
539
524
521
564
578
572
565
550
562
597
614
585
548
533
525
543
590
595
608
607
602
612
606
598
573
561
594
608
622
626
598
577
557
561
563
518
535
584
587
606
606
611
633
589
522
500
494
518
513
480
472
500
527
516
488
457
431
418
458
484
456
440
419
416
420
444
468
504
486
473
445
413
422
428
401
396
400
424
425
410
450
481
469
447
436
421
433
436
483
507
487
490
478
464
444
443
474
505
487
466
474
477
492
490
468
449
464
488
488
461
475
495
475
467
495
522
553
547
554
550
551
543
523
514
460
438
444
477
478
449
489
520
519
500
482
493
527
545
550
562
554
510
515
509
481
467
461
461
473
508
545
554
523
490
438
451
470
478
424
459
533
563
563
544
525
523
557
570
555
536
518
499
491
469
429
420
471
497
503
507
494
504
506
520
533
515
514
534
507
489
521
531
523
541
540
496
469
485
507
509
517
567
600
578
541
517
486
472
483
510
519
538
574
573
533
488
490
532
546
518
510
521
509
483
491
522
542
526
528
527
542
516
510
534
548
538
522
521
541
543
546
539
498
486
487
482
480
493
498
506
518
509
536
537
503
522
538
527
514
493
515
543
549
536
522
532
559
562
563
559
519
502
464
453
441
466
488
519
530
506
506
512
571
597
571
517
486
472
455
444
443
490
517
523
521
514
514
508
500
501
533
523
482
462
480
478
502
515
543
531
515
495
498
527
531
502
484
474
490
511
500
479
485
515
559
564
535
525
537
537
530
512
534
525
512
513
505
503
497
500
503
518
529
545
518
505
531
531
534
538
527
511
525
534
521
527
538
546
535
531
534
510
465
454
491
521
504
468
449
488
509
509
505
513
515
523
508
506
503
516
552
593
640
710
781
838
866
873
871
813
708
617
555
501
444
358
320
306
328
351
389
438
454
471
451
451
441
465
483
510
506
478
479
501
497
476
479
499
499
494
498
477
466
481
495
474
488
497
519
532
546
542
525
512
503
531
563
561
532
510
520
516
513
501
464
480
529
528
534
527
541
567
579
598
596
566
533
510
528
546
565
594
602
573
561
567
584
566
561
557
575
562
536
547
580
610
593
588
589
584
597
591
590
605
608
613
616
605
583
570
548
538
548
573
577
561
542
525
535
558
573
589
532
507
530
558
531
472
430
424
441
466
461
451
455
451
451
429
415
416
442
445
413
387
380
366
377
414
453
462
439
440
437
416
416
426
441
439
420
427
445
455
461
492
478
432
405
411
415
410
414
455
461
471
483
464
460
466
453
470
499
539
556
536
527
521
494
483
467
465
475
505
495
480
436
465
532
537
505
477
485
497
513
491
485
489
495
498
490
506
509
506
521
516
516
502
482
475
474
449
455
468
494
511
492
473
503
540
530
509
487
475
482
478
458
496
524
498
484
485
505
518
513
485
438
421
433
416
421
462
472
500
510
524
513
511
512
501
475
478
519
537
521
499
490
525
529
487
481
491
486
484
492
478
464
460
511
526
519
525
526
539
546
527
503
487
495
512
513
518
515
481
498
524
533
497
466
461
466
459
468
477
519
543
558
541
524
492
519
555
563
519
470
489
524
532
516
532
519
501
495
503
516
514
506
509
543
548
535
529
493
468
498
548
578
557
552
559
562
568
581
601
597
574
564
534
490
465
455
453
444
490
547
556
548
555
569
541
484
488
508
541
564
572
578
570
526
507
510
496
484
488
501
474
475
501
536
567
576
558
548
539
549
551
553
565
550
521
493
501
505
534
545
549
551
505
474
465
503
549
554
528
514
506
538
577
580
583
566
563
556
559
549
542
549
544
539
547
554
546
521
510
511
520
517
528
549
574
573
531
517
561
559
540
536
541
560
542
516
512
525
528
522
533
515
480
466
480
493
499
522
543
559
612
646
674
724
804
868
912
929
889
814
737
653
587
497
402
340
302
309
333
358
414
444
448
468
475
465
468
461
455
453
467
480
491
479
500
532
522
521
505
487
444
447
464
480
490
499
517
510
501
499
495
524
543
555
538
514
507
551
542
551
557
534
500
492
515
532
558
566
535
497
497
514
521
524
530
548
550
546
551
575
601
588
570
563
554
528
555
571
582
585
582
574
590
637
665
643
603
578
558
536
543
565
576
549
559
584
613
634
631
618
627
634
636
607
582
589
602
601
576
568
553
507
490
505
546
561
555
533
519
494
467
465
451
433
442
438
456
451
451
443
430
433
420
378
397
419
417
429
438
433
405
386
387
384
407
432
436
435
430
414
420
419
437
461
463
495
512
467
447
452
453
451
418
392
418
437
439
423
429
440
463
478
496
516
492
485
489
468
480
500
514
522
516
497
518
498
483
486
498
515
514
503
497
475
446
445
448
447
476
477
503
554
556
511
488
496
518
518
496
468
496
495
496
477
496
522
507
511
483
487
547
561
544
509
487
473
479
475
490
506
527
512
514
523
526
518
493
477
459
478
487
503
513
508
499
484
489
498
475
495
519
497
488
523
524
521
500
519
552
538
499
488
506
514
513
505
509
511
526
531
517
527
555
548
516
497
486
480
511
517
502
513
513
494
479
493
518
527
536
531
518
502
503
523
528
522
505
494
491
491
536
570
558
549
541
529
503
498
516
532
529
516
519
494
479
503
556
578
575
540
480
471
488
529
538
525
502
471
492
526
510
481
521
579
592
557
543
527
492
484
526
533
501
485
488
486
494
513
530
538
517
471
413
451
518
525
509
506
495
517
522
525
519
518
508
505
523
547
544
509
500
495
484
506
534
492
448
455
512
558
528
488
514
545
559
559
553
530
556
537
516
488
484
502
546
496
495
546
523
522
556
561
541
519
537
544
543
538
556
578
545
480
454
477
533
566
570
552
566
543
538
518
509
459
465
470
475
485
477
468
489
513
524
508
500
487
490
495
551
641
720
797
877
911
936
922
889
842
761
627
506
411
408
414
374
346
324
337
354
375
378
406
446
470
468
439
426
468
465
434
455
489
482
482
464
436
457
479
507
493
504
515
531
522
489
469
425
418
467
497
511
512
530
485
475
496
516
539
525
481
481
461
463
497
518
531
531
542
528
536
578
591
580
584
595
566
519
494
498
514
542
537
529
562
594
598
601
582
573
565
575
624
624
591
579
576
589
584
604
580
607
632
643
629
642
615
589
596
594
595
602
610
596
596
593
566
534
552
567
601
593
538
495
521
554
526
506
506
499
484
438
444
446
445
414
395
425
428
420
423
452
424
399
384
375
401
430
453
447
418
407
392
402
426
444
414
391
414
438
444
425
404
414
424
426
450
441
414
381
415
460
481
510
519
491
457
450
454
445
442
436
438
447
449
439
448
447
453
463
474
471
481
504
494
505
523
529
523
511
504
487
479
470
441
460
463
451
451
485
483
449
455
500
510
514
515
485
457
460
498
476
456
463
470
454
462
456
467
495
514
537
533
523
494
466
446
455
452
428
468
507
508
504
492
486
478
482
529
559
532
497
470
456
483
484
475
446
459
491
511
524
525
528
524
527
514
482
450
431
462
503
487
482
503
528
529
527
513
501
504
534
539
499
475
476
513
503
500
469
454
491
499
493
490
496
507
491
502
506
516
567
587
546
506
491
492
517
514
511
518
522
503
470
477
483
470
478
527
549
542
540
539
556
564
531
501
515
543
540
560
556
557
526
462
465
493
482
495
493
491
488
511
552
549
545
514
509
511
524
530
492
477
514
522
544
552
557
531
521
513
524
545
522
505
499
520
549
547
515
510
486
497
530
563
568
529
508
499
515
527
509
509
529
521
515
526
536
534
500
492
526
538
507
479
485
468
493
554
566
569
581
614
590
535
511
519
525
499
491
518
537
550
546
536
544
534
547
539
554
548
531
510
477
461
477
495
518
528
526
506
494
494
507
502
481
466
483
486
480
540
630
693
759
822
880
916
897
892
856
772
700
623
550
461
379
317
282
279
298
320
343
388
413
417
418
430
458
460
437
457
487
452
417
427
433
466
491
518
503
466
449
450
461
457
481
504
500
481
484
497
533
546
512
483
455
451
461
485
498
504
494
499
493
490
522
484
499
512
481
492
531
546
526
518
546
550
549
515
500
543
555
555
560
564
574
578
580
571
572
557
537
526
510
500
520
546
572
598
622
638
603
559
582
605
598
610
625
617
617
626
605
577
565
560
563
582
585
594
580
537
510
511
525
512
541
547
536
531
493
454
487
504
500
499
492
477
457
431
416
403
406
417
415
402
381
348
374
407
409
415
413
407
380
396
420
431
452
440
417
408
430
437
443
449
442
398
406
431
433
434
441
450
462
477
503
503
498
485
466
470
459
486
508
505
482
462
478
487
508
525
530
525
522
504
484
463
448
451
481
469
480
511
536
551
521
510
504
505
536
560
544
527
486
468
473
471
454
466
462
495
510
497
495
518
538
538
498
477
471
474
500
505
528
544
564
566
531
520
509
485
482
472
486
500
490
476
489
515
541
562
539
509
495
490
476
467
480
510
532
538
526
499
489
535
553
495
495
491
467
481
510
490
484
490
527
535
506
532
530
526
513
490
481
494
512
507
498
499
521
522
513
491
474
478
499
500
509
506
504
495
478
500
521
526
538
506
483
517
549
537
509
496
498
509
507
503
508
518
506
517
560
567
563
527
470
456
491
504
481
471
473
454
495
494
532
576
567
535
538
509
467
500
541
521
510
521
529
527
522
515
512
502
478
482
514
536
509
500
515
533
536
516
480
508
532
538
524
496
503
533
575
583
579
550
525
524
532
514
485
468
496
541
565
566
548
540
535
519
525
508
512
499
507
495
487
489
490
507
495
488
508
524
496
484
467
479
513
529
568
604
672
737
801
872
920
914
867
820
745
650
568
474
387
342
340
331
307
313
347
372
383
398
387
442
471
454
445
438
469
465
443
436
423
439
451
478
474
478
509
503
472
474
498
504
502
482
467
483
487
469
474
482
480
466
483
473
464
477
497
499
499
520
523
530
530
542
556
570
581
588
553
509
519
525
503
501
508
522
518
523
512
491
517
562
600
595
583
583
571
570
551
585
597
575
549
553
598
624
603
629
642
627
598
602
588
560
546
558
577
614
618
589
568
580
577
543
526
517
513
510
531
509
491
473
461
510
541
510
498
452
402
410
398
387
386
401
423
430
436
446
446
420
384
352
356
355
360
366
387
383
389
401
413
418
413
415
425
414
371
390
420
428
426
428
408
389
438
481
467
467
446
412
421
457
486
462
467
494
517
523
468
388
385
410
443
467
474
469
480
471
457
467
479
486
501
520
515
535
506
467
481
484
459
443
459
468
476
459
475
484
487
490
476
456
446
452
472
487
517
523
464
451
455
488
514
516
517
503
517
524
522
519
493
458
421
391
419
477
516
522
510
506
494
476
471
474
465
478
476
457
474
541
556
524
488
469
493
500
499
506
516
527
538
515
479
481
497
506
517
532
524
492
468
467
474
468
477
507
558
568
522
517
519
498
491
465
458
469
504
545
542
515
501
499
544
571
548
557
551
543
518
489
480
470
499
504
501
523
557
539
488
505
547
542
506
489
533
554
545
574
606
596
547
503
478
483
526
533
526
526
508
512
550
569
562
543
532
528
522
515
509
514
541
536
539
528
516
540
551
538
560
557
569
536
494
530
567
584
579
563
540
536
545
544
543
547
578
569
548
522
528
547
563
559
539
529
553
547
530
496
487
473
493
548
568
542
525
527
519
490
511
559
551
513
515
526
556
623
689
775
860
909
895
905
871
799
724
659
572
529
465
412
387
369
388
410
405
394
400
423
425
415
418
461
492
497
527
516
463
401
394
433
476
510
532
502
465
455
434
449
471
498
482
511
536
527
523
526
507
503
506
510
509
496
520
528
535
504
516
539
541
518
518
526
545
545
512
552
573
554
537
503
506
515
512
530
559
569
562
541
540
566
574
571
552
558
580
596
592
560
576
587
603
627
639
635
644
653
617
593
598
592
610
619
605
582
596
602
590
572
545
567
573
570
568
598
617
600
558
530
493
488
527
519
487
504
531
496
464
434
433
447
465
479
484
478
466
442
466
451
436
418
410
411
406
408
464
485
452
437
417
418
409
389
417
451
477
496
486
497
498
485
481
464
453
451
471
468
456
435
444
475
491
498
501
512
502
472
494
543
553
536
510
486
501
507
503
501
481
482
496
503
548
559
514
467
447
454
469
494
531
544
512
524
543
539
520
494
521
546
529
507
488
471
470
502
526
498
476
477
489
511
486
475
496
527
497
502
528
504
508
524
526
490
470
458
474
512
536
528
515
510
513
530
518
496
505
523
505
496
535
570
573
550
493
446
452
461
475
491
502
522
515
462
445
499
545
555
538
518
496
494
496
498
507
553
566
568
545
517
518
490
475
473
468
493
520
520
474
457
483
516
542
530
523
534
547
535
513
508
507
515
515
520
516
508
520
541
521
506
481
502
507
505
530
534
538
516
504
494
515
545
573
587
592
587
557
507
489
483
462
472
482
506
518
532
536
499
512
559
579
548
496
484
471
493
519
521
537
552
548
553
577
600
573
528
468
449
507
546
534
541
554
579
580
581
580
552
517
520
565
577
568
543
531
527
519
528
557
567
549
513
499
475
466
441
447
458
486
500
481
483
505
549
564
547
548
566
599
638
704
767
862
931
960
929
876
808
714
624
563
484
365
307
330
329
309
325
377
426
442
430
450
468
471
469
498
495
486
479
447
442
457
451
449
429
426
466
460
468
456
466
485
491
508
529
548
542
522
511
491
495
524
516
506
515
515
531
514
487
458
461
481
514
526
515
542
571
572
552
543
539
534
546
551
546
581
563
529
539
530
503
519
548
551
579
595
599
598
602
580
583
612
621
598
569
580
623
647
654
622
603
603
607
567
534
557
600
614
606
563
529
558
567
561
533
572
579
538
516
537
530
512
499
509
499
472
456
441
450
459
462
480
442
443
418
410
406
392
389
377
418
454
462
449
419
402
392
405
404
410
415
418
416
415
442
434
414
450
454
430
428
419
432
444
427
437
437
429
447
452
461
451
455
441
452
459
459
500
519
505
483
482
480
495
504
484
486
509
509
514
492
453
444
493
527
552
544
504
459
436
449
491
490
454
470
463
432
453
490
501
502
529
557
524
486
481
489
500
498
479
435
417
453
505
528
520
494
514
543
542
486
454
454
454
486
483
506
517
515
509
499
509
504
469
481
498
475
490
502
515
514
519
502
469
466
509
544
550
514
498
511
521
513
481
479
495
508
507
521
533
532
523
496
486
501
500
515
529
484
462
488
534
539
535
532
527
505
489
489
454
453
494
552
563
543
536
540
532
546
531
513
496
474
458
471
490
532
561
569
556
517
486
498
468
485
508
502
498
515
540
531
525
543
544
557
555
532
524
490
485
521
530
521
510
502
492
475
477
480
495
518
547
520
499
516
515
530
549
542
537
530
501
484
488
507
521
520
496
502
497
510
534
550
545
541
508
494
489
529
560
541
501
499
531
537
561
576
588
583
553
526
530
528
563
566
553
540
493
461
478
512
515
523
543
530
485
486
506
488
492
520
552
534
499
481
477
489
476
483
468
503
541
554
582
657
746
816
879
925
935
880
807
735
668
585
511
455
404
369
359
340
347
366
379
405
401
395
415
444
440
464
446
447
482
467
472
472
477
464
445
453
459
480
503
500
467
412
410
434
456
495
505
489
507
516
509
469
441
477
504
498
511
522
551
541
509
474
457
477
505
510
519
521
524
553
589
583
541
513
484
511
535
537
562
571
557
548
557
561
555
521
544
579
562
531
564
598
617
619
614
603
598
601
578
561
571
577
583
573
562
601
621
606
610
604
586
571
563
545
531
534
550
566
562
534
508
474
467
463
479
483
486
473
449
445
454
430
417
438
460
452
434
403
409
410
407
423
415
397
395
378
372
396
423
439
426
423
425
433
440
457
460
453
423
426
443
437
429
404
393
412
427
432
451
477
463
452
471
481
443
427
463
504
532
521
503
514
545
530
481
445
445
457
473
470
478
509
506
521
513
530
544
522
495
492
488
471
489
477
484
508
486
490
522
556
560
528
490
470
456
446
477
488
494
517
500
495
515
525
546
510
480
481
513
525
508
504
504
511
509
519
516
529
513
489
488
468
466
484
500
517
523
493
512
525
543
544
523
502
515
522
504
523
524
531
519
511
517
514
498
463
453
477
514
516
514
510
530
545
556
549
533
529
509
474
508
543
575
577
512
506
534
545
516
527
562
568
529
502
478
488
480
490
529
568
576
580
592
582
564
549
512
472
468
496
525
505
523
531
522
543
546
529
532
562
564
561
546
526
519
503
509
510
493
489
522
530
538
551
548
535
495
432
453
520
531
539
548
558
544
532
560
574
574
574
566
565
556
527
512
496
515
521
507
508
523
486
458
530
569
539
539
573
584
574
544
519
495
504
507
541
556
570
561
541
533
518
531
535
533
552
559
552
572
564
540
508
537
553
571
579
578
561
545
534
525
532
539
492
474
501
515
520
519
517
529
526
530
519
524
537
527
501
524
544
508
492
462
470
526
588
665
776
841
882
911
900
862
836
756
688
625
537
452
394
369
347
358
397
429
413
403
397
436
470
469
462
463
451
417
425
447
468
497
488
467
435
473
505
495
476
473
488
489
462
474
480
488
487
469
475
515
516
493
468
485
503
510
526
553
532
509
514
511
490
500
512
505
491
485
527
552
560
532
529
556
513
482
519
566
576
574
565
600
611
589
577
564
532
527
546
562
576
585
582
607
626
612
600
611
614
625
632
592
573
601
614
613
622
614
593
575
558
556
569
585
588
590
594
583
543
505
481
500
518
509
508
506
487
461
462
465
462
437
418
401
398
413
461
449
443
433
428
413
398
400
389
387
364
392
418
424
407
399
414
411
397
399
401
380
372
370
397
424
448
425
415
401
374
399
459
485
494
477
478
484
460
471
454
451
459
460
429
423
429
442
462
447
450
458
441
445
441
452
474
484
505
505
510
494
485
494
511
529
516
497
469
463
432
433
451
462
430
402
438
494
495
490
494
516
538
531
509
508
506
501
499
500
504
509
485
494
494
491
466
437
393
435
508
547
555
548
507
467
468
474
491
509
517
476
476
497
517
541
523
468
448
483
516
545
552
519
470
471
521
544
530
523
522
526
508
528
544
548
526
504
508
516
507
493
474
472
484
475
527
530
530
532
552
566
563
522
504
498
495
502
497
497
465
454
459
539
581
591
609
582
531
488
483
498
496
524
527
513
487
498
546
566
540
511
512
527
524
524
533
533
498
488
517
532
533
535
535
510
469
455
477
512
524
571
606
584
550
507
450
462
462
497
555
547
531
481
476
495
516
503
494
502
521
515
530
542
535
542
561
569
536
529
525
481
494
543
593
576
536
518
517
501
491
509
511
498
502
491
490
515
532
537
548
566
570
588
595
557
499
486
487
516
508
485
491
484
483
488
512
504
479
486
485
513
499
462
471
465
473
504
532
545
550
616
708
784
844
878
897
907
895
835
730
634
539
463
383
329
331
344
324
332
368
406
425
409
403
421
439
442
450
464
470
473
462
460
429
407
419
437
427
444
477
449
443
446
440
439
454
480
481
472
476
454
432
459
486
521
534
509
509
529
513
514
507
473
429
422
438
522
549
540
530
509
529
544
537
513
506
499
521
551
544
531
538
559
568
548
543
555
569
570
566
527
482
531
598
589
582
587
577
584
620
621
599
593
586
593
578
578
586
543
541
580
578
567
564
585
586
552
520
509
502
469
444
446
485
508
498
497
498
486
462
455
428
415
430
470
464
420
420
411
391
365
351
325
326
386
418
437
438
417
413
411
398
391
402
413
434
451
440
398
376
395
400
427
424
413
410
405
407
422
398
390
455
487
492
498
487
458
445
460
452
443
448
480
479
491
492
488
473
478
483
471
453
459
463
485
502
489
505
523
490
483
494
513
526
519
512
510
510
475
444
418
442
505
537
536
488
487
491
483
482
477
489
505
527
525
501
517
516
504
480
461
442
453
498
486
506
516
521
546
529
499
496
495
507
504
489
493
501
522
526
487
490
502
505
484
470
448
467
543
570
563
540
510
495
492
510
529
536
515
478
497
532
529
517
527
508
500
510
504
511
501
504
505
522
543
524
505
503
479
496
539
555
525
519
515
536
550
540
512
513
498
483
501
524
538
535
515
509
510
517
554
551
492
492
558
589
564
554
541
533
525
503
508
506
499
499
498
508
505
491
487
534
569
572
535
506
509
496
504
554
576
565
537
531
527
500
530
551
522
521
533
539
528
515
513
503
489
509
557
576
561
557
544
529
520
519
524
507
488
514
526
508
494
509
542
528
526
550
535
509
545
552
552
559
564
566
550
522
530
532
530
558
589
573
519
537
570
587
579
540
506
509
485
496
528
535
552
576
587
571
535
498
488
495
508
530
528
499
488
468
442
462
488
498
509
528
557
579
614
630
675
741
836
926
953
957
932
900
804
699
580
461
375
308
307
322
324
346
398
428
442
430
378
398
444
480
484
472
451
444
473
476
483
482
454
413
396
436
481
519
538
513
467
419
419
457
471
489
509
523
542
522
520
523
480
455
495
507
512
497
505
508
543
509
482
532
567
544
516
528
520
534
538
544
539
506
527
562
553
565
584
570
541
521
538
548
546
563
563
587
606
576
579
620
629
609
595
613
659
653
632
627
624
610
591
605
610
591
590
581
600
597
580
561
556
543
558
574
566
553
557
561
555
547
526
506
514
502
500
486
473
447
434
419
413
444
470
449
410
402
412
440
468
460
411
392
424
424
391
368
369
397
424
401
376
357
370
417
467
435
399
399
406
418
448
480
505
508
482
466
457
470
468
477
472
444
386
370
385
423
464
473
456
444
469
504
508
471
461
510
536
530
514
488
498
494
489
509
501
473
454
440
429
444
476
536
554
512
479
454
428
453
457
448
442
449
468
527
569
566
563
540
508
511
523
506
476
468
474
488
509
494
473
481
477
458
473
512
503
459
501
550
550
538
525
535
511
505
473
446
479
503
507
537
569
562
547
537
549
543
512
450
427
452
472
478
488
499
508
474
477
510
527
537
512
522
569
552
551
543
498
463
501
534
555
555
526
510
541
568
548
553
554
508
475
451
460
501
520
530
542
579
577
564
541
540
529
541
572
604
662
671
601
540
517
529
571
626
657
645
643
669
685
670
641
625
661
717
776
770
746
698
697
709
734
715
663
637
596
532
483
489
472
423
270
142
76
41
23
13
8
5
7
126
393
717
907
977
1023
1023
1023
1023
1023
1023
1023
1023
1023
1023
998
931
965
1023
1023
1023
1023
1023
1023
1023
1023
1023
1023
1023
1023
1023
1023
1023
1023
1023
1023
1023
1023
1023
1023
1023
1023
1023
1023
1023
1023
1023
1023
1023
1023
1023
1023
1023
1023
1023
1023
1023
1023
1023
1023
1023
1023
1023
1023
1023
1023
1023
1023
1023
1023
1023
1023
1023
1023
1023
1023
1023
1023
1023
1023
1023
1023
1023
1023
1023
1023
1023
1023
1023
1023
1023
1023
1023
1023
1023
1023
1023
1023
1023
1023
1023
1023
1023
1023
1023
1023
1023
1023
1023
1023
1023
1023
1023
1023
1023
1023
1023
1023
1023
1023
1023
1023
1023
1023
1023
1023
1023
1023
1023
1023
1023
1023
1023
1023
1023
1023
1023
1023
1023
1023
1023
1023
1023
1023
1023
980
824
676
542
420
305
189
102
56
31
18
11
7
4
3
2
2
2
1
1
1
1
1
1
1
1
1
1
1
1
1
1
1
1
1
1
1
1
1
1
1
1
1
1
1
1
1
1
1
1
1
1
1
1
1
1
1
1
1
1
1
1
1
1
0
1
0
1
1
1
1
1
1
1
1
1
1
1
1
0
1
1
1
1
1
1
1
1
1
1
1
1
1
1
1
1
1
0
1
1
1
1
1
1
0
1
1
0
1
0
1
1
1
1
1
1
1
1
1
0
1
1
0
0
1
1
1
1
1
1
1
1
1
0
1
0
1
0
1
1
1
1
1
0
1
1
1
1
0
1
1
1
1
1
1
1
1
1
1
1
1
1
1
0
1
1
1
1
1
1
1
0
1
0
1
1
1
1
1
1
1
0
1
0
1
1
1
0
1
0
0
1
1
1
1
1
1
1
1
1
1
0
1
0
1
1
0
0
1
1
1
1
0
1
0
1
0
1
1
1
0
0
1
1
0
1
1
1
1
1
1
1
1
1
1
1
1
0
1
1
1
1
0
1
1
1
1
1
1
0
0
0
1
1
1
1
1
1
1
1
0
1
0
1
1
1
0
0
0
1
1
1
0
0
1
1
1
1
1
1
0
0
1
1
1
0
1
1
1
1
1
1
1
0
1
1
1
0
0
1
1
0
1
1
1
1
1
1
0
0
1
1
1
1
1
1
1
1
1
1
1
1
1
1
1
1
1
1
1
1
1
1
1
1
1
1
1
1
1
1
2
8
15
21
24
27
32
38
44
49
54
60
64
68
72
74
78
82
88
93
97
100
103
106
110
114
118
122
125
128
131
134
138
143
147
151
155
157
160
162
165
169
174
177
181
186
190
192
195
200
205
209
213
215
217
219
222
225
229
233
237
239
243
245
247
252
257
263
267
268
269
271
274
277
281
287
292
296
299
301
302
305
310
316
321
324
325
328
329
333
337
341
344
347
350
352
354
358
361
365
367
367
367
369
371
374
376
379
382
383
383
385
388
390
395
398
399
398
397
397
400
402
404
407
410
410
409
408
407
409
410
411
412
413
412
413
413
415
419
422
422
423
423
422
423
425
427
429
433
436
436
437
438
442
445
448
451
454
456
458
459
461
464
468
471
473
474
473
473
474
475
477
480
482
484
487
487
488
490
493
496
497
499
499
499
501
503
506
509
509
510
510
510
512
514
516
520
522
523
525
527
529
529
530
534
535
534
534
533
535
538
539
540
541
542
542
543
545
547
549
552
554
554
555
555
554
555
557
559
560
560
560
560
562
563
564
565
566
567
568
568
567
570
572
574
576
578
577
576
577
578
579
581
582
582
582
583
583
583
582
583
585
585
584
584
587
590
593
597
598
599
599
598
598
601
604
606
606
607
608
608
609
611
613
615
616
616
618
617
616
618
620
622
624
626
626
625
626
627
627
629
630
629
630
632
632
633
634
636
637
638
637
637
638
640
642
644
644
644
644
643
643
644
646
647
648
650
650
650
652
654
657
659
659
659
659
658
657
658
659
662
661
661
662
663
662
662
662
663
663
663
664
665
665
665
667
669
670
668
667
666
666
668
669
671
673
674
673
672
672
673
672
674
675
675
673
672
673
674
676
676
678
678
677
676
677
678
680
682
684
684
683
680
680
682
683
686
687
686
685
684
685
686
688
689
688
685
683
682
682
684
687
689
690
689
689
690
690
692
692
692
692
691
691
691
692
692
692
694
694
693
693
695
694
693
694
695
696
696
694
693
692
692
692
693
693
692
692
692
692
693
693
694
696
696
695
693
692
693
695
696
698
700
699
699
