568
551
521
483
462
468
482
490
509
558
546
484
441
447
457
480
479
459
436
426
461
489
504
518
512
499
484
489
470
441
437
435
463
496
535
592
645
726
780
830
860
850
867
940
933
861
784
686
625
530
472
438
421
420
416
396
404
415
453
414
372
353
350
380
412
415
395
363
390
416
411
410
436
457
454
421
382
408
398
407
419
443
471
479
457
422
445
422
434
475
496
486
469
474
471
469
473
471
509
517
511
462
440
468
491
487
469
484
523
507
500
538
515
496
480
489
532
565
548
540
550
552
550
530
529
580
588
538
493
503
529
559
596
601
603
593
571
587
609
627
593
561
596
628
587
557
567
540
501
488
503
536
530
508
458
438
448
503
498
473
452
471
487
486
474
464
443
415
398
423
422
419
394
379
406
395
415
428
438
504
508
462
449
429
443
460
466
458
432
431
403
426
460
466
476
468
454
464
467
473
459
441
432
415
421
494
538
512
471
464
472
488
520
514
511
501
473
479
483
461
462
448
476
515
533
524
488
451
415
427
440
462
509
542
548
558
549
504
507
498
501
528
544
557
521
472
486
462
454
481
500
503
534
548
528
502
486
495
504
499
506
485
480
468
473
486
487
501
533
557
545
535
557
528
544
527
518
498
485
492
512
525
530
531
522
507
491
477
473
489
514
524
560
580
582
556
522
482
470
477
522
566
574
562
565
546
519
516
487
456
458
476
473
500
524
554
543
544
539
535
556
559
544
510
495
505
539
583
600
569
541
489
463
495
495
472
482
521
551
551
540
516
486
463
459
495
540
548
546
538
533
493
462
486
510
532
567
584
552
488
497
474
460
496
571
584
551
540
539
529
528
538
525
531
550
534
527
505
489
455
457
474
472
514
549
511
469
476
485
480
471
486
484
469
485
498
505
498
533
543
580
603
639
686
751
805
808
805
800
790
749
712
666
632
592
535
500
461
401
414
424
433
418
418
425
434
426
423
405
396
433
473
471
459
456
459
450
452
495
510
503
489
450
446
457
445
451
465
450
473
454
450
483
464
464
512
503
473
474
490
485
502
502
483
522
546
541
507
509
506
479
475
517
537
525
507
479
484
506
524
523
518
481
485
515
541
596
600
572
538
536
580
622
624
600
574
570
588
602
586
580
599
627
637
610
568
579
585
570
535
541
537
528
516
515
535
530
496
522
545
537
517
502
496
513
491
458
434
420
393
411
422
430
414
369
360
373
384
359
384
439
477
468
441
428
428
448
433
425
424
421
400
415
429
422
471
501
465
476
486
431
387
426
465
463
473
482
466
493
504
481
484
467
431
454
487
516
556
541
522
540
535
531
499
482
492
487
473
462
473
504
540
511
461
500
560
567
515
508
502
484
474
472
495
540
588
539
430
484
485
487
461
480
509
514
484
483
486
466
460
468
479
505
525
548
547
526
513
508
473
475
466
471
476
470
483
515
540
522
491
471
496
507
485
516
526
533
523
510
491
517
552
565
576
587
580
523
489
484
503
511
524
491
459
481
511
496
518
556
566
523
531
560
583
577
550
521
507
492
501
534
579
603
580
541
531
534
502
505
527
563
574
587
562
554
560
494
455
461
498
517
524
504
492
506
515
529
529
562
558
514
505
546
560
578
541
545
520
523
516
509
510
508
554
566
597
593
550
540
571
586
543
526
509
482
492
517
545
560
566
547
518
533
568
546
505
486
473
468
467
514
515
503
510
527
553
541
499
460
434
462
470
445
473
509
559
599
654
646
679
741
782
832
907
928
898
824
724
638
568
487
479
507
469
412
368
351
373
407
430
431
453
466
437
360
371
433
463
460
432
425
453
484
474
473
470
452
430
389
386
389
366
377
378
387
406
430
504
562
534
487
486
502
511
502
486
478
492
500
494
466
453
443
481
460
492
496
466
452
464
501
519
472
498
535
517
564
586
595
594
579
568
529
554
565
533
515
514
598
650
628
611
597
543
494
569
620
602
600
588
589
583
584
588
604
642
601
569
597
593
570
509
505
530
536
539
526
508
423
344
392
488
500
459
427
454
439
393
407
456
463
438
402
380
368
394
429
447
404
369
324
292
330
430
484
422
338
298
295
329
312
288
319
351
374
371
369
398
354
363
403
411
457
481
426
373
357
327
311
352
405
450
432
383
351
351
340
352
369
329
313
360
459
513
526
487
455
475
469
471
458
453
430
441
461
460
453
472
487
484
515
562
510
468
454
438
403
375
437
523
532
463
390
382
387
398
474
502
520
500
490
492
519
526
513
516
521
513
512
498
485
524
522
484
491
487
464
412
421
491
505
539
570
511
508
543
547
528
509
531
530
543
528
531
537
540
558
531
517
539
571
561
553
584
570
543
526
505
495
447
460
540
550
576
553
532
517
563
561
500
570
593
540
563
560
526
504
473
488
501
515
477
465
516
523
527
490
436
415
436
464
522
571
555
510
529
529
523
530
543
558
501
450
456
489
510
527
481
436
423
433
435
442
499
537
496
460
451
438
454
462
491
499
520
503
525
539
497
497
535
571
578
600
582
498
477
492
478
460
467
499
513
491
467
483
527
531
514
496
508
514
533
516
508
481
497
526
538
551
552
542
531
505
518
496
439
435
519
554
513
486
444
472
511
575
586
550
572
543
511
528
596
606
605
549
543
607
657
697
744
836
914
999
1023
1023
1010
896
846
829
759
633
584
592
567
515
427
418
475
493
514
520
549
505
500
507
507
516
515
557
556
501
478
407
444
528
602
615
607
576
515
444
465
520
559
590
622
596
555
546
531
552
604
625
630
635
603
585
568
520
506
562
637
674
655
606
632
636
604
582
596
648
697
723
733
672
593
624
699
702
705
701
692
629
611
671
722
749
722
755
783
752
694
668
712
756
766
724
711
736
761
746
782
817
793
785
732
698
754
798
773
700
670
643
652
660
641
654
659
664
651
643
612
590
548
501
518
562
576
550
549
581
603
630
633
617
619
644
658
650
613
568
549
579
577
567
547
568
626
688
680
689
671
586
524
506
530
553
591
614
613
633
619
630
625
613
640
635
619
607
662
710
708
678
630
595
603
623
622
615
676
711
661
632
640
633
608
618
652
670
679
647
627
618
630
625
621
636
667
631
606
622
671
673
668
681
711
695
629
623
643
628
630
673
673
638
659
730
725
709
664
635
652
677
670
706
700
686
684
710
700
663
709
690
649
607
634
651
656
675
673
672
703
662
642
669
654
642
635
657
695
700
686
660
638
634
634
647
684
673
695
687
691
657
629
615
575
515
616
672
636
641
689
690
669
691
676
640
656
652
611
599
610
645
645
625
625
668
659
630
629
602
587
612
594
611
617
619
619
612
638
649
626
601
606
633
626
612
623
628
587
583
611
652
656
635
620
572
548
579
599
606
605
624
603
580
562
591
604
611
618
654
603
536
536
548
557
551
527
534
547
573
534
523
575
599
578
576
532
535
540
552
554
530
514
503
609
668
585
502
482
505
535
558
598
616
578
492
491
516
512
534
568
592
580
530
554
572
536
516
536
518
496
491
495
500
502
509
539
537
525
529
523
504
475
447
472
465
492
519
524
442
415
454
491
505
512
470
443
438
463
423
405
429
522
548
548
632
711
752
814
847
862
885
924
918
867
814
728
616
504
436
400
381
398
412
396
405
420
416
355
301
295
289
323
343
352
351
299
296
327
329
336
335
328
316
313
356
414
411
381
351
386
433
458
463
355
309
325
333
346
376
423
435
392
362
377
367
336
334
392
420
417
424
421
420
408
390
358
352
379
400
363
358
412
474
522
489
400
397
425
466
433
409
429
432
422
446
453
491
483
458
465
489
487
465
479
479
466
458
472
483
450
427
395
397
419
447
458
484
494
449
387
377
370
361
335
349
366
361
338
353
344
302
276
265
262
276
289
279
264
221
182
207
230
232
244
273
285
319
329
286
227
219
241
264
279
293
263
231
222
235
269
284
266
258
250
258
246
272
355
351
346
341
283
244
263
309
325
302
294
283
271
290
295
274
280
299
307
293
302
339
327
295
268
274
322
335
323
320
346
362
340
349
367
370
354
329
303
269
283
332
350
374
363
323
295
267
301
332
325
362
397
380
346
360
368
386
396
398
343
317
336
376
353
323
300
327
347
372
373
354
340
328
345
398
400
371
330
341
374
355
289
304
358
391
362
324
292
278
347
371
346
342
379
393
425
410
439
475
449
398
352
306
370
402
338
356
394
396
396
390
371
371
416
433
465
444
372
346
395
412
422
420
389
381
395
406
432
446
447
470
490
556
585
531
444
408
369
356
382
398
426
462
476
455
429
423
465
504
446
410
425
432
414
387
370
395
404
401
390
377
398
433
433
410
388
413
421
423
439
439
403
392
402
394
393
430
489
510
442
396
387
396
396
398
379
358
340
357
452
480
475
488
479
458
427
403
401
405
459
473
420
357
360
379
367
355
374
384
392
405
387
361
344
333
333
354
380
424
455
420
401
369
353
323
346
377
366
396
419
422
463
527
576
600
618
671
752
815
833
825
770
678
607
579
518
420
341
303
267
212
187
242
313
332
356
359
324
295
317
349
332
299
313
359
356
341
349
361
372
360
330
328
343
373
388
376
371
388
419
403
351
360
388
359
345
371
376
356
298
360
437
387
351
359
370
368
337
368
375
340
312
317
328
319
323
309
312
337
387
408
392
380
359
362
340
381
429
402
417
438
456
419
420
449
452
438
437
458
463
434
423
415
454
474
490
534
522
505
470
447
470
481
498
495
444
414
409
406
416
412
401
414
407
422
388
359
383
359
328
307
330
332
319
320
326
336
342
372
363
337
342
335
347
350
346
359
385
403
399
379
372
364
373
379
398
399
410
426
435
422
361
359
366
364
390
419
431
449
457
449
448
442
448
435
436
434
422
433
439
447
464
476
508
542
543
529
531
536
523
540
538
529
543
544
527
489
468
460
465
451
458
483
515
552
546
525
518
503
525
527
501
471
489
524
546
544
525
507
515
526
535
577
535
493
483
458
445
442
461
487
503
515
498
464
466
503
514
489
493
478
421
420
495
531
507
472
496
490
490
480
445
447
472
496
517
507
516
490
474
495
515
485
469
482
491
441
479
603
600
491
446
423
415
463
473
423
384
390
450
495
477
416
342
349
420
459
450
464
493
480
437
441
472
457
418
449
467
470
459
447
450
452
448
433
426
396
358
432
476
457
397
395
432
465
492
472
436
424
424
419
449
432
447
485
484
475
460
459
465
454
462
456
490
547
567
537
501
465
488
546
596
587
558
521
517
535
546
538
542
549
551
546
531
499
459
447
493
511
508
502
508
484
476
525
601
583
529
493
490
512
516
529
525
563
601
568
543
513
511
510
546
569
573
623
758
808
842
849
879
934
965
991
1023
983
878
795
699
615
545
521
561
567
519
501
494
463
433
475
537
518
494
477
461
457
445
450
495
546
528
472
465
473
481
486
461
441
473
462
478
480
476
446
480
498
497
536
524
487
500
552
593
560
543
529
505
515
519
492
478
494
509
533
550
542
517
518
539
543
544
536
540
546
563
611
622
614
586
559
532
567
582
605
628
654
630
599
599
664
672
602
534
554
598
629
641
635
640
641
658
660
629
592
589
600
591
579
590
592
617
594
575
561
552
527
507
498
487
504
484
468
432
437
466
503
518
476
449
435
424
428
448
468
482
452
463
453
433
474
484
469
467
452
452
505
538
511
502
499
479
451
459
453
497
528
488
514
523
481
439
464
484
488
496
491
461
455
461
500
529
538
540
519
514
543
530
517
512
502
469
489
513
550
583
546
525
515
474
477
503
486
482
536
573
554
509
481
500
550
550
572
586
560
560
526
510
544
584
597
559
548
595
622
597
611
621
629
628
606
573
532
545
587
611
632
623
587
549
566
603
638
590
528
491
519
569
635
651
605
568
560
550
542
570
571
558
550
560
569
558
532
544
591
619
610
564
553
530
523
535
586
652
612
540
523
507
519
561
567
561
575
560
537
528
577
591
595
604
604
558
512
494
510
529
544
540
540
562
546
514
529
554
557
555
568
558
526
521
538
529
517
501
490
515
524
506
539
567
554
533
540
552
548
545
534
556
556
538
512
507
502
555
619
611
552
516
504
510
500
472
496
515
506
532
577
582
576
534
466
489
550
569
564
569
592
582
592
599
596
577
573
562
572
590
568
527
531
553
547
521
496
493
460
471
516
547
550
509
519
536
562
583
487
435
459
491
509
547
506
505
520
498
509
522
524
510
558
610
624
659
752
840
882
927
956
974
966
970
890
815
721
620
537
483
449
474
487
486
489
477
434
411
416
440
430
436
465
448
408
390
388
383
398
401
422
431
449
468
483
472
437
425
415
354
373
402
423
435
456
510
453
452
517
513
498
466
467
478
487
523
510
479
455
448
459
477
503
519
523
520
559
528
500
485
477
538
585
579
547
553
539
529
539
554
542
551
552
567
552
548
555
564
619
608
561
563
597
659
666
651
617
608
597
572
580
589
557
552
557
551
557
554
563
622
622
595
586
557
529
487
447
445
457
438
438
470
443
421
437
445
436
440
453
419
413
403
407
418
374
329
418
467
459
431
420
436
414
406
429
447
431
414
410
439
491
502
483
489
501
474
439
440
529
564
553
482
419
433
454
480
521
543
526
532
537
554
528
495
508
516
502
494
495
536
564
565
561
545
551
584
529
513
465
423
466
502
514
534
587
588
587
587
573
556
509
508
519
526
527
538
573
610
603
560
512
496
507
510
537
547
529
531
538
508
450
490
530
557
556
559
563
580
571
579
599
566
502
459
451
513
566
557
542
537
536
538
524
521
527
524
525
518
551
586
605
568
513
523
550
585
594
551
506
523
535
519
538
550
545
541
502
505
515
524
546
547
532
525
542
546
583
598
603
584
576
554
524
530
555
561
522
490
523
534
528
539
537
564
548
546
545
551
511
526
532
527
532
581
571
556
532
547
541
538
550
556
546
551
559
572
563
566
541
523
520
536
545
553
570
560
581
601
601
550
535
547
538
522
510
529
540
562
621
616
590
576
602
615
590
580
564
560
535
525
542
558
583
592
564
554
467
463
541
556
501
493
527
524
532
545
536
533
504
507
539
567
565
551
512
478
498
558
596
575
609
657
695
764
862
920
964
1002
1015
1023
972
872
772
697
618
527
473
466
467
437
430
419
433
445
430
387
399
417
432
433
405
414
436
424
434
482
490
504
497
438
394
419
453
478
493
423
409
444
458
468
504
490
474
463
493
528
532
504
497
515
509
508
540
520
505
510
502
485
478
489
495
494
508
515
520
561
578
574
563
561
515
481
496
531
568
618
596
596
573
528
537
569
574
580
595
603
580
610
628
591
622
649
641
607
579
578
594
580
552
599
601
570
585
590
617
594
540
549
585
581
551
526
525
514
506
488
480
472
470
500
520
492
432
403
404
392
401
408
433
468
472
465
518
472
437
432
441
445
439
432
427
471
478
465
482
489
487
469
447
452
444
464
450
459
497
520
506
485
494
491
484
503
505
488
480
511
536
560
554
530
487
471
473
445
470
491
493
516
540
523
495
511
538
550
557
531
527
505
513
503
479
516
536
558
582
528
481
470
503
528
521
501
502
521
511
512
516
510
490
485
473
502
524
531
517
510
533
554
575
584
531
478
477
519
514
510
514
519
508
463
466
496
533
543
525
519
502
506
538
564
572
536
517
509
515
500
502
497
514
528
550
571
553
522
505
512
507
508
520
544
561
540
529
529
527
531
533
505
496
527
525
541
548
522
493
468
454
478
506
511
507
501
515
542
544
495
475
489
540
548
545
501
511
537
497
483
487
496
534
587
569
549
543
497
490
477
513
556
572
560
551
556
527
536
544
534
512
505
521
518
509
480
455
480
579
553
492
463
483
502
509
496
524
526
491
510
512
490
485
464
439
466
502
516
479
469
502
540
607
686
745
778
826
832
794
770
777
747
652
573
513
488
467
456
430
414
432
447
432
445
446
451
460
471
490
472
480
481
483
484
448
405
408
442
463
471
496
494
493
514
498
481
491
491
487
442
444
510
560
555
534
508
492
495
542
532
506
509
506
511
554
567
499
440
454
482
496
522
527
494
497
522
551
565
578
565
544
541
518
568
577
556
555
523
546
572
579
576
565
574
554
564
580
581
571
590
616
629
672
656
600
591
584
577
588
591
604
557
599
601
576
555
534
529
491
481
463
445
462
476
476
515
527
500
451
416
423
425
436
436
449
455
448
419
417
422
403
407
420
409
421
437
433
444
442
450
474
403
374
396
420
456
490
496
479
468
450
461
476
482
463
443
454
507
509
483
479
494
509
501
492
448
457
485
496
522
522
523
522
523
494
518
479
451
503
524
485
491
508
512
529
526
524
512
478
471
490
518
521
528
516
521
535
558
578
591
590
493
428
454
479
489
482
503
513
519
540
553
523
521
529
504
525
526
489
446
485
531
560
566
577
599
588
546
489
503
570
556
511
465
466
477
522
540
517
472
457
466
497
517
556
567
511
498
512
510
545
581
579
543
545
537
533
514
507
495
499
502
501
497
493
522
502
511
516
527
542
552
517
506
519
573
570
525
509
525
516
489
484
492
537
579
599
550
493
511
516
512
531
536
510
516
490
460
487
536
562
540
526
508
534
542
498
531
599
608
579
551
510
484
502
531
545
560
593
625
585
516
487
496
507
519
562
584
568
542
522
489
487
477
478
499
523
538
570
585
548
517
485
485
540
527
472
461
485
507
549
543
515
499
477
450
501
503
466
472
512
567
623
679
733
787
837
883
918
925
912
863
783
700
652
571
515
498
515
527
477
437
449
474
469
435
403
397
424
415
391
376
367
388
412
426
416
439
477
454
456
453
452
424
424
443
484
521
537
496
455
422
410
448
479
475
483
541
527
436
439
470
470
470
482
521
514
516
538
531
489
443
455
477
482
504
517
533
557
537
555
564
513
503
519
545
556
517
493
510
580
575
553
537
529
519
520
576
621
611
621
609
573
551
568
566
613
591
571
575
634
679
653
583
537
534
561
555
526
493
482
452
456
519
548
552
524
476
415
389
420
435
464
495
469
420
396
366
374
406
436
464
467
454
452
451
425
419
432
374
382
436
460
473
450
439
462
514
493
445
438
487
496
473
473
478
507
457
412
426
456
478
494
492
493
504
523
535
560
561
517
502
480
471
469
475
493
489
478
471
501
525
539
532
504
481
442
435
467
486
518
543
563
509
490
545
546
501
463
486
519
511
514
505
476
474
495
508
515
519
507
494
489
522
550
552
507
474
476
458
449
456
522
512
504
527
524
526
509
498
500
523
509
492
514
498
488
517
548
505
456
490
495
464
462
476
514
548
547
513
513
502
497
481
468
502
519
530
548
529
503
502
508
509
519
514
493
508
493
492
500
518
551
563
551
525
514
504
501
524
518
555
526
513
511
503
497
503
496
512
480
449
487
518
512
514
515
548
567
534
500
474
480
490
471
465
492
516
532
527
528
520
516
488
477
483
484
496
497
530
557
549
527
554
614
594
518
446
456
477
476
480
526
591
582
550
494
467
513
549
558
540
504
474
480
474
497
526
540
516
483
512
575
514
475
457
435
429
438
480
510
527
552
520
476
462
468
437
436
465
484
478
518
578
631
683
740
822
862
866
864
914
981
876
750
665
617
574
527
505
488
471
432
413
400
418
424
430
408
406
447
440
390
351
358
397
420
438
444
421
443
495
466
441
423
399
399
461
535
519
477
488
462
434
417
392
391
405
445
467
463
441
474
516
514
495
503
494
478
503
503
505
496
536
520
500
471
495
568
546
513
490
467
462
483
503
529
527
526
532
531
540
560
571
595
582
556
530
527
553
572
563
570
572
520
535
614
645
629
592
592
596
604
613
585
543
524
523
516
539
582
577
523
507
503
470
438
453
448
439
421
436
416
396
415
438
459
491
498
453
437
415
423
423
400
372
390
417
422
426
421
438
447
431
428
446
474
474
448
475
497
465
428
430
455
469
474
520
528
498
442
442
461
451
436
441
436
450
479
496
515
508
488
499
525
515
476
462
467
464
480
494
539
551
522
479
481
487
488
502
508
530
513
450
427
455
493
522
521
503
499
497
487
494
507
547
562
511
476
483
501
529
527
539
543
500
491
525
547
508
480
455
433
443
488
496
513
533
545
534
488
504
508
493
490
503
480
488
458
482
547
524
491
513
539
540
522
522
490
472
506
506
485
486
509
524
515
507
516
511
508
488
524
505
485
462
495
535
523
490
521
545
514
477
477
478
530
563
555
538
536
494
458
495
561
580
553
520
490
486
504
531
525
518
525
532
504
515
529
538
541
491
472
463
494
477
496
536
552
539
504
496
483
491
550
587
560
543
514
484
476
465
494
532
522
485
510
529
489
499
513
511
486
489
547
582
569
562
550
517
529
568
555
501
480
490
549
604
559
519
501
503
502
482
493
482
491
506
510
508
491
472
461
460
472
513
561
569
550
540
499
454
454
462
473
460
473
475
442
452
493
538
612
701
728
770
840
898
926
962
947
865
806
746
717
653
572
488
459
402
373
419
421
444
433
449
420
402
408
398
391
430
396
360
393
426
434
463
444
415
395
412
448
449
457
465
441
432
433
437
455
475
433
394
434
479
503
530
550
555
539
519
469
459
449
399
394
439
491
515
516
528
543
518
497
496
516
516
533
529
505
547
570
582
564
545
510
510
506
522
535
543
570
626
627
594
590
594
598
588
623
628
597
583
569
574
576
609
632
611
587
564
595
602
563
558
581
583
554
554
583
542
455
436
407
415
445
454
426
409
436
458
391
397
438
471
476
464
457
436
403
403
439
421
417
405
413
451
429
419
415
406
414
416
401
448
500
519
528
512
476
446
468
461
429
455
464
467
480
493
499
493
487
461
463
435
442
475
486
505
485
489
470
446
454
497
510
514
539
522
498
512
529
538
494
458
462
466
520
579
554
511
467
456
433
451
463
499
562
577
518
478
480
497
501
498
477
469
504
557
549
540
516
484
454
448
513
523
490
491
477
472
488
494
488
496
489
477
468
501
494
475
488
516
487
493
575
592
553
509
502
497
474
477
480
474
496
550
540
519
485
483
484
539
545
528
533
516
512
499
453
446
483
500
496
500
505
498
497
520
541
584
578
523
481
506
526
528
522
524
569
507
455
456
494
516
521
528
516
503
481
458
459
485
526
522
522
518
516
508
506
538
533
497
523
525
485
480
550
558
533
509
536
524
485
490
488
509
502
489
502
519
505
505
505
508
505
512
515
521
535
527
510
502
498
491
511
520
511
541
540
521
479
455
512
560
543
545
547
529
541
566
572
538
536
552
567
563
524
511
522
501
469
456
535
577
530
473
450
454
497
495
486
509
527
504
488
467
442
493
507
527
553
530
511
515
501
455
415
464
513
548
613
717
810
888
920
934
946
967
953
905
835
777
700
609
532
466
446
418
397
368
349
372
411
423
429
438
404
402
427
406
397
406
395
400
398
340
376
398
423
436
443
436
450
483
483
464
431
415
409
448
466
443
443
423
434
465
454
469
487
500
497
504
491
426
448
496
523
556
557
556
527
510
499
516
531
517
480
480
502
538
561
529
509
518
535
550
568
564
545
543
560
557
540
547
606
640
661
618
608
651
654
611
566
584
580
583
566
554
587
593
611
611
599
590
627
616
587
540
541
516
456
432
465
474
526
527
481
455
449
437
424
437
448
447
439
411
402
418
448
435
416
382
398
422
418
423
426
467
481
474
437
421
384
362
409
451
444
438
425
435
491
505
499
483
468
437
452
497
523
505
486
477
460
427
419
443
471
457
483
516
474
462
484
492
480
521
508
477
472
462
479
513
512
539
554
532
521
512
504
498
467
461
475
461
438
459
473
491
523
523
508
501
479
441
461
490
512
517
516
489
488
520
529
549
543
516
516
493
466
457
460
452
469
517
538
516
505
529
560
547
490
506
497
452
474
510
530
527
515
513
526
451
453
494
512
537
579
575
542
534
530
513
488
483
482
504
483
469
472
480
506
531
529
539
540
507
474
484
492
500
505
500
536
561
537
497
492
526
561
546
523
489
482
500
521
501
459
495
512
523
504
501
496
531
555
562
487
448
482
530
579
583
517
501
546
539
504
487
498
494
488
520
526
520
509
522
526
553
548
513
500
487
488
481
477
486
516
540
543
549
563
534
520
494
515
532
549
523
499
483
474
521
570
576
589
566
546
565
543
494
503
557
566
527
536
521
486
475
497
535
548
532
520
478
453
468
481
478
489
478
509
500
481
499
516
533
514
504
499
467
456
462
499
556
625
688
759
831
878
919
922
917
928
895
824
719
631
541
495
476
439
404
424
447
446
427
418
418
435
442
433
411
399
399
409
424
439
450
428
425
443
445
459
469
484
440
403
376
383
424
450
476
446
394
443
495
503
515
512
480
444
498
490
491
473
492
497
506
502
501
486
495
473
492
523
521
496
484
495
492
506
507
489
479
493
529
531
546
547
543
545
558
560
565
557
570
606
562
543
589
601
590
580
586
564
560
576
573
562
549
570
590
575
573
582
574
549
538
527
529
528
536
539
542
535
506
467
474
499
497
487
469
441
428
418
434
448
445
427
400
376
382
413
432
433
442
469
469
415
416
426
420
424
436
467
474
441
404
409
432
439
452
477
462
422
413
431
454
484
485
484
437
417
446
488
501
536
553
540
516
510
496
500
540
515
477
458
484
472
475
463
469
483
489
516
508
482
469
475
495
497
492
502
506
501
496
483
483
515
516
554
545
508
485
478
496
477
481
506
510
524
539
496
445
472
498
505
544
558
534
513
503
495
484
460
458
483
533
553
540
538
547
531
499
515
545
475
412
440
485
512
531
552
548
524
508
500
528
524
496
482
496
496
503
542
543
523
530
536
504
491
487
484
473
490
497
516
515
510
508
515
539
532
531
531
577
532
465
455
528
567
547
500
490
490
495
501
485
470
477
515
535
502
481
516
509
492
510
520
532
534
528
521
524
512
505
473
489
550
538
523
517
540
544
591
601
508
458
478
495
492
515
525
527
541
567
562
541
525
504
482
491
502
500
531
557
574
552
524
497
510
546
567
561
551
539
505
476
494
526
525
516
523
525
538
530
493
449
421
479
543
527
473
475
503
510
526
522
510
519
556
603
662
702
742
805
835
842
811
758
741
716
623
532
434
369
394
399
431
455
469
472
465
471
448
428
447
467
440
410
440
481
521
511
490
486
476
467
457
464
483
489
467
455
486
515
514
504
474
453
433
445
491
515
523
523
545
523
477
476
481
507
545
542
503
477
461
498
510
508
520
524
531
534
515
490
526
571
566
560
548
546
579
552
481
472
529
620
635
600
569
543
537
544
568
568
563
568
625
601
554
613
631
618
616
600
608
626
559
543
534
559
600
589
569
566
547
521
504
507
510
508
497
472
494
504
470
439
424
456
449
431
443
435
459
483
456
423
425
456
443
404
412
429
454
480
470
436
432
458
476
427
409
443
468
451
411
424
465
478
486
474
444
422
448
486
411
395
471
527
537
516
477
459
445
442
467
478
500
526
505
505
521
516
535
555
523
516
456
422
422
450
471
465
472
488
495
503
524
541
541
521
497
466
459
463
461
475
503
535
553
532
534
497
458
452
477
491
492
485
491
493
492
502
499
488
473
471
487
499
493
500
536
553
536
512
513
505
502
483
491
558
579
538
512
486
475
474
495
520
523
527
519
475
461
486
496
493
470
468
485
496
515
526
511
506
487
501
526
536
563
578
533
532
545
511
544
548
517
493
494
482
472
481
511
540
521
497
513
518
521
537
520
455
481
525
557
540
514
491
470
499
517
541
528
527
561
554
532
524
479
454
464
498
512
501
517
537
533
539
565
567
528
482
484
514
522
513
537
555
586
579
529
500
516
527
552
574
584
560
519
507
481
483
489
454
449
486
500
498
494
502
502
491
507
527
527
532
546
514
504
494
511
521
506
512
512
479
445
459
483
459
467
538
593
624
687
745
799
841
869
896
879
888
817
771
698
619
521
464
446
453
500
538
489
431
398
383
409
409
415
451
427
389
372
379
398
396
388
389
418
444
468
492
499
490
464
462
457
452
484
483
505
489
472
458
447
461
451
434
447
468
474
500
496
484
520
500
466
482
489
490
456
447
459
478
513
510
507
521
524
547
553
569
554
525
518
530
544
558
534
543
579
610
598
558
564
582
593
518
487
514
553
580
597
610
620
620
597
569
591
628
623
567
527
527
568
577
584
574
530
521
513
530
547
557
546
533
480
443
433
455
472
455
442
434
435
453
451
416
403
407
448
452
442
420
406
408
459
438
429
457
443
437
445
461
480
494
491
466
415
404
435
465
486
526
510
455
443
460
491
510
463
439
426
463
498
478
494
531
503
454
472
488
492
507
518
517
492
488
482
500
551
603
611
548
456
426
461
477
484
504
479
486
529
532
506
502
463
469
505
495
488
489
497
505
524
508
472
439
458
457
452
470
510
498
509
552
540
524
509
522
548
539
534
497
491
495
481
479
512
506
475
482
472
481
500
503
481
493
474
476
496
483
507
524
545
576
559
551
548
546
510
480
461
507
540
576
592
573
542
518
494
484
513
528
507
504
540
549
533
515
504
526
528
547
541
552
534
509
533
564
550
530
524
511
511
514
512
517
551
574
580
583
551
522
495
503
512
508
500
517
544
537
510
506
525
509
511
523
523
515
560
592
571
543
521
514
524
528
548
574
546
495
485
486
497
500
524
531
569
587
596
573
569
562
539
542
545
571
604
611
600
552
506
477
490
489
482
503
530
551
537
527
521
499
495
496
488
474
437
435
484
534
559
551
539
555
530
510
500
488
484
511
574
639
708
756
799
883
938
983
948
900
849
776
715
649
558
478
480
467
441
459
430
396
404
435
461
455
435
399
398
401
393
397
418
433
432
414
422
452
484
433
399
391
389
437
478
468
446
444
470
497
503
467
442
445
457
461
451
459
482
500
508
512
500
505
470
449
489
512
508
489
483
508
532
537
541
534
521
531
532
534
587
562
539
515
509
505
527
550
546
554
581
609
589
551
552
560
566
593
575
572
614
634
601
575
591
599
612
622
622
601
583
582
621
604
579
574
575
582
571
556
536
528
495
487
495
495
499
498
491
469
447
417
399
417
407
400
421
456
478
500
467
437
424
434
459
437
416
428
453
475
480
457
439
442
452
447
455
475
488
473
496
486
485
495
478
453
442
451
471
496
496
472
479
510
509
524
523
495
486
488
490
471
476
485
497
519
523
487
469
445
461
505
545
541
525
513
518
508
492
467
465
494
509
505
506
516
524
528
560
558
505
426
455
490
481
457
463
453
436
484
516
516
470
475
503
521
542
547
504
502
508
511
538
533
541
571
538
456
426
460
483
490
510
496
435
434
521
570
518
505
519
520
496
464
481
471
460
502
517
499
492
516
537
557
559
539
525
513
515
517
480
478
507
524
517
504
506
522
546
539
496
468
476
483
492
503
510
496
469
492
534
546
532
506
504
494
480
481
491
500
500
517
534
553
559
539
490
477
482
505
529
534
550
497
467
477
513
524
481
490
508
509
510
508
496
519
516
512
528
524
509
510
507
518
515
521
537
541
542
536
552
551
569
558
503
463
490
518
528
506
493
530
595
570
545
530
496
494
522
510
484
444
446
467
496
504
499
476
489
508
474
511
529
496
475
460
462
483
465
464
469
481
523
579
655
758
848
904
964
988
962
927
887
860
804
746
654
570
507
466
454
445
430
386
381
351
349
357
373
395
394
400
428
467
482
436
407
424
415
395
380
382
401
466
489
452
408
410
393
433
480
491
501
480
483
488
428
425
461
476
470
461
474
503
525
503
506
476
457
487
518
527
536
532
517
497
492
502
545
517
480
503
536
523
530
549
549
529
529
555
559
534
527
542
549
579
601
579
563
582
576
569
578
566
572
588
605
619
603
581
567
580
584
593
588
564
553
545
550
543
507
496
491
512
521
509
497
462
443
436
404
386
402
413
387
392
429
434
415
392
389
365
385
437
438
426
409
400
386
366
363
357
367
384
382
427
466
479
448
425
387
385
401
407
422
418
436
438
441
473
465
440
412
420
459
466
453
482
478
463
438
441
460
452
425
429
432
445
465
508
503
450
439
464
483
477
469
465
480
496
478
457
447
434
458
483
483
482
499
510
474
448
448
461
502
529
542
507
469
461
462
445
444
446
486
499
493
469
460
484
470
461
479
495
501
490
475
452
461
490
499
507
526
531
520
553
567
522
514
493
491
497
486
477
466
455
453
470
512
518
512
521
480
465
480
514
541
542
504
500
496
506
491
516
534
510
532
528
518
489
511
543
508
499
508
503
484
479
487
505
521
515
527
530
497
487
538
557
550
512
474
464
459
456
509
563
544
553
555
542
497
463
478
505
521
540
543
526
511
508
508
500
525
547
552
559
542
538
539
560
571
568
549
515
523
536
527
536
529
547
531
518
526
539
510
477
477
522
554
534
516
504
497
495
467
439
447
481
488
491
503
488
469
469
503
510
534
512
494
498
492
521
513
528
598
647
715
806
869
916
906
927
918
840
754
677
623
555
488
440
439
440
429
436
426
428
422
410
410
423
444
426
412
425
481
489
462
437
391
404
420
417
429
448
459
476
488
449
434
455
458
434
434
448
502
516
509
476
446
464
509
499
489
491
489
522
530
508
496
503
502
501
528
518
480
486
517
553
530
523
525
498
484
524
540
536
545
553
555
556
538
557
552
541
529
508
531
601
643
615
565
593
623
616
601
612
606
583
560
566
584
570
564
555
576
611
589
571
545
543
534
561
582
567
541
513
505
468
446
480
470
447
442
434
438
465
455
416
398
392
419
455
458
422
407
374
354
360
394
422
441
469
481
432
381
397
468
436
402
439
456
448
468
475
478
460
449
458
479
450
451
478
484
483
466
451
483
523
514
479
435
434
481
484
453
453
468
498
504
503
506
538
525
487
467
468
488
526
559
485
473
480
452
442
426
483
534
536
541
529
508
499
522
538
502
498
506
468
448
463
470
466
507
503
496
490
490
486
473
471
496
520
514
495
483
474
467
463
477
521
529
522
533
538
528
472
426
425
473
486
476
490
539
607
570
490
453
484
535
598
577
543
515
477
425
401
488
548
556
536
522
466
476
520
506
514
533
514
507
509
523
526
526
556
577
555
515
501
503
493
487
510
546
563
526
526
585
593
563
528
504
510
526
532
524
522
580
620
617
574
528
522
542
539
547
579
585
556
523
528
522
514
528
547
547
503
454
471
518
516
519
528
541
529
525
530
527
505
476
478
498
537
527
495
491
459
425
448
515
583
634
688
753
803
840
867
925
967
990
930
827
771
737
626
513
474
473
476
454
417
397
395
429
428
428
440
449
446
418
411
419
415
432
459
463
443
416
430
460
467
454
479
485
445
438
496
515
476
446
455
474
478
501
526
503
484
471
457
486
528
537
492
484
498
507
519
530
551
538
486
476
484
509
549
547
529
523
529
522
507
518
549
547
541
540
559
565
600
621
629
615
530
510
536
532
538
589
640
624
585
586
583
589
613
617
558
549
568
553
566
572
616
658
651
621
581
525
525
532
562
557
516
470
455
434
393
399
446
433
439
462
431
408
430
441
434
434
416
371
350
376
428
443
440
463
449
455
487
455
421
409
415
415
405
399
400
438
443
448
467
427
367
430
456
453
506
563
543
498
477
470
491
482
455
464
473
498
543
523
528
555
516
475
431
440
453
430
422
417
419
447
498
525
544
539
550
581
574
545
520
502
471
483
509
513
516
503
502
505
517
533
546
519
497
528
519
529
513
480
477
496
502
440
421
491
529
549
532
499
498
497
535
532
503
526
560
544
532
520
495
508
497
498
479
508
544
541
490
455
513
523
486
496
479
487
495
515
528
479
454
477
535
559
550
525
513
489
493
494
477
477
551
567
519
524
575
564
522
527
536
529
485
441
440
474
491
520
531
485
437
439
486
497
520
548
552
533
530
477
491
518
543
534
542
537
500
509
566
571
528
515
490
472
472
512
583
618
588
552
508
458
436
481
505
503
497
533
550
545
575
554
536
542
527
501
471
502
532
542
546
540
519
519
572
605
526
451
419
400
423
515
505
441
435
454
465
486
496
545
593
636
673
725
773
803
865
935
966
970
936
861
835
821
745
648
592
494
447
435
448
456
437
444
424
380
362
367
390
433
470
438
418
403
397
414
425
465
487
476
462
486
538
496
470
464
465
451
439
456
454
437
449
479
488
479
481
462
474
492
496
519
563
598
567
505
492
507
439
459
501
545
584
583
535
534
563
572
530
461
488
541
562
567
575
608
611
584
590
611
609
627
608
593
572
550
591
627
584
571
607
664
684
652
615
574
594
659
672
647
648
660
668
641
616
612
593
567
592
614
613
563
501
496
531
547
490
488
538
478
412
399
453
487
451
448
435
424
425
420
409
430
458
445
437
449
452
433
438
433
391
385
355
372
415
446
490
517
530
506
444
454
485
450
450
476
489
473
429
453
438
446
457
448
450
438
459
485
521
510
475
479
486
460
467
474
483
489
499
477
459
459
490
506
491
557
572
551
536
508
479
456
431
459
488
490
463
491
513
505
513
517
493
472
455
472
513
543
546
521
481
469
470
472
463
447
444
521
589
611
572
524
474
429
427
434
462
500
470
462
477
474
510
522
497
496
494
469
484
491
480
478
468
484
509
544
560
568
531
478
453
461
464
495
523
537
545
509
527
499
486
500
471
454
421
445
497
556
581
532
494
483
504
540
520
477
467
464
479
515
538
547
519
491
521
549
516
464
472
493
466
459
483
507
488
483
526
506
480
494
514
487
463
447
447
463
479
488
497
537
563
539
527
514
494
476
468
477
493
516
534
541
557
531
500
503
517
485
473
499
525
540
543
582
583
554
544
550
560
522
499
475
465
468
466
459
473
517
547
552
530
506
507
495
495
485
495
498
465
440
454
456
476
468
479
456
433
491
548
560
574
615
663
719
776
829
867
886
949
1006
1005
990
912
774
659
555
452
407
407
429
437
451
434
440
442
412
393
392
418
425
432
420
390
384
390
408
417
430
437
416
417
469
481
429
414
438
452
449
485
477
465
444
432
411
431
468
475
497
527
556
580
554
486
455
457
475
487
476
463
488
501
506
538
515
515
505
462
441
473
522
563
570
533
490
486
492
509
531
544
550
557
572
597
610
611
596
575
551
554
560
546
538
563
568
593
596
577
583
612
619
609
575
558
544
549
591
608
568
529
525
526
508
506
507
488
478
459
470
464
439
434
445
405
405
431
429
411
399
434
448
430
395
419
426
414
400
417
444
441
437
429
441
439
428
428
433
425
453
487
507
495
498
496
478
449
467
482
474
469
464
482
493
508
519
482
482
483
483
470
471
469
453
470
499
469
462
484
470
486
485
476
497
496
501
528
547
551
520
486
456
470
482
475
498
493
533
521
506
529
530
506
474
465
445
476
502
496
501
525
539
519
499
504
507
521
522
516
511
513
527
541
532
516
489
439
451
494
526
535
516
509
505
517
533
520
504
494
529
508
485
484
482
487
491
505
533
571
540
493
485
470
471
488
494
485
470
493
508
505
489
491
506
508
510
536
542
536
527
531
519
516
496
476
449
451
447
474
499
519
551
545
556
570
533
513
480
499
512
486
463
471
507
560
591
599
553
505
481
453
480
483
465
465
498
513
515
509
514
501
504
507
508
529
543
532
519
545
577
561
536
488
483
521
519
527
531
542
563
574
588
606
608
619
533
488
515
528
507
487
469
456
493
532
521
511
511
528
537
534
527
466
444
469
503
516
510
506
504
498
510
532
573
568
478
455
479
502
506
531
569
631
685
747
799
856
921
955
1000
1009
946
858
772
681
588
508
464
449
446
438
450
448
433
393
378
368
384
416
437
460
430
411
389
357
360
371
404
446
441
425
438
427
429
435
443
445
483
511
499
502
479
474
446
441
443
446
469
515
482
476
432
417
478
481
449
448
463
468
480
479
508
540
537
548
553
521
506
509
529
526
554
544
495
480
509
548
601
607
580
533
527
535
518
529
541
568
581
580
580
596
600
624
631
605
564
572
599
610
614
619
609
607
644
613
582
586
539
517
522
540
532
504
484
489
518
498
485
481
488
480
446
408
384
410
411
434
471
450
422
407
406
414
431
451
453
470
426
412
434
447
428
433
459
437
438
469
443
417
446
460
457
465
464
468
483
492
484
493
499
501
499
492
489
478
468
478
507
514
519
517
502
487
486
477
494
500
505
489
472
506
525
552
551
522
512
483
493
516
520
536
513
502
495
498
513
519
522
520
514
521
503
488
499
503
500
529
545
519
515
537
520
531
548
500
472
486
510
519
504
502
516
503
490
488
503
499
507
526
534
545
555
549
513
489
480
492
501
507
530
526
545
536
513
547
529
483
471
492
528
555
545
519
496
516
540
544
534
499
455
466
505
515
503
513
511
532
545
555
538
497
490
516
523
515
506
505
494
493
524
565
570
533
520
500
474
480
507
542
531
501
490
500
510
513
523
521
487
479
497
500
519
508
470
481
509
536
538
522
497
534
588
598
538
501
452
444
485
505
521
529
512
489
489
511
513
503
496
528
551
543
536
532
541
588
590
572
545
531
524
507
506
556
603
605
614
591
580
563
496
481
476
451
464
508
521
486
480
520
512
507
515
497
447
419
456
499
527
599
628
559
500
479
487
453
475
537
563
585
660
735
784
838
919
986
990
949
928
885
824
796
714
603
514
464
471
487
453
456
396
385
396
400
364
316
376
425
418
445
449
445
442
429
413
392
432
468
461
437
415
407
418
449
461
506
524
524
473
450
453
478
488
480
481
444
444
446
440
466
484
482
477
459
493
520
528
510
489
506
516
509
513
487
476
493
542
541
534
500
508
564
568
551
542
510
505
506
513
530
534
577
603
592
600
565
557
564
563
561
565
572
560
575
595
628
635
619
602
589
566
566
557
591
577
556
548
569
562
526
507
502
449
425
432
449
443
437
453
496
493
442
408
395
359
378
405
414
438
438
408
392
397
395
407
437
409
414
439
448
446
425
439
454
446
444
462
432
407
433
494
514
474
406
401
418
446
442
467
467
448
409
416
468
491
478
475
498
483
474
495
505
489
478
499
530
495
481
485
484
481
475
482
495
479
435
426
472
492
500
499
516
531
528
517
495
485
493
537
518
492
470
468
486
501
522
512
514
516
536
536
520
510
484
457
476
492
517
494
472
496
492
492
471
446
466
505
516
512
510
509
500
520
516
515
496
448
449
478
522
574
569
552
488
455
460
463
453
432
455
482
466
464
470
505
514
541
543
519
509
527
564
554
529
497
488
495
482
497
513
495
489
490
515
528
519
511
503
494
513
537
545
528
500
530
558
514
478
465
450
505
579
598
572
546
529
515
505
491
495
505
499
501
517
543
529
496
493
497
505
519
538
591
620
610
575
519
511
532
534
549
557
566
550
517
542
552
558
538
477
480
529
523
516
494
491
484
496
485
495
506
509
531
565
555
509
507
521
543
519
501
485
471
506
543
500
502
526
568
526
496
509
530
603
726
859
901
850
815
809
857
860
782
706
625
541
508
478
453
439
446
458
471
483
444
439
432
422
430
436
455
445
463
492
500
492
447
421
489
566
485
446
465
493
490
489
487
490
496
504
511
490
500
484
480
469
474
495
513
511
509
529
526
518
530
518
505
501
482
511
529
544
560
555
537
498
508
541
566
574
557
508
517
569
594
582
562
545
531
544
563
559
562
566
567
605
629
611
605
589
579
561
547
573
585
552
523
573
610
631
616
597
581
572
579
579
568
563
569
560
526
510
530
521
518
487
434
403
425
451
430
422
416
405
443
435
423
431
436
440
417
403
390
407
411
392
391
389
397
397
431
463
463
438
452
497
455
423
426
438
437
423
425
447
464
463
474
473
470
482
486
482
476
467
463
468
491
489
479
498
459
466
479
498
519
492
471
477
469
480
493
501
502
475
482
477
467
490
504
510
509
521
513
482
492
498
525
526
488
476
468
490
517
513
472
475
497
499
476
489
505
495
490
492
508
516
500
499
477
462
468
512
515
527
531
525
532
514
504
523
537
516
489
468
490
521
493
464
460
475
489
523
521
518
529
523
492
495
532
534
514
494
493
487
495
501
489
526
546
550
571
554
524
473
479
524
529
525
513
503
472
487
507
520
507
514
476
471
465
479
500
492
512
538
549
535
508
510
534
550
537
473
462
487
518
569
555
493
499
500
494
494
490
482
497
523
532
522
534
526
526
524
513
516
539
557
556
573
542
529
536
529
512
486
456
481
505
536
531
522
536
505
463
439
446
472
488
505
482
471
493
515
481
473
496
530
528
508
509
519
483
442
432
492
532
523
536
610
709
789
852
889
838
854
905
863
781
697
619
574
522
470
445
457
441
459
453
422
443
433
423
408
431
432
426
419
394
394
406
416
421
464
479
454
440
450
466
470
464
450
430
426
432
433
458
463
476
492
516
508
492
470
467
494
471
448
459
502
525
490
436
413
447
486
513
534
548
546
538
572
598
599
555
536
531
543
524
533
533
522
501
478
485
521
570
684
700
622
572
590
602
589
607
646
656
623
596
523
559
585
570
606
600
607
587
592
609
586
576
582
595
598
591
557
522
499
488
512
583
598
547
473
444
424
437
442
433
461
453
435
403
390
410
436
432
454
473
431
437
443
427
418
420
389
359
382
383
405
445
470
468
462
448
415
414
445
453
438
467
499
523
531
509
499
495
499
508
526
449
415
399
383
420
465
477
463
490
513
510
489
472
466
471
446
428
430
462
471
467
502
532
541
551
544
541
483
449
465
496
522
512
492
481
493
475
453
446
469
519
541
507
510
528
559
542
480
448
439
451
465
482
458
463
503
578
556
498
476
475
499
595
567
499
470
466
440
428
442
487
509
524
546
510
461
458
464
477
499
531
559
585
534
467
455
480
536
599
575
571
538
479
460
470
463
447
460
443
478
549
556
525
467
429
462
480
516
535
548
539
524
523
522
548
591
549
480
464
481
503
475
471
483
538
533
507
493
484
477
482
445
461
510
548
517
494
499
492
503
535
538
534
513
511
519
538
551
554
562
575
559
502
509
547
511
495
530
574
606
607
593
568
530
541
558
466
417
434
464
525
507
457
414
407
451
459
433
477
542
590
558
536
507
516
535
505
476
498
527
510
649
674
564
470
437
451
541
654
781
828
842
862
830
842
850
865
787
735
692
621
575
541
482
417
394
382
374
396
444
429
446
443
423
491
457
484
501
416
318
305
370
391
412
444
455
457
431
399
438
497
504
491
477
477
505
490
476
496
455
417
442
462
492
470
490
525
502
472
511
546
558
547
510
505
488
479
497
515
566
552
511
509
549
569
571
560
555
539
504
511
536
519
546
616
603
562
614
600
555
542
569
606
623
629
620
610
577
559
590
598
567
594
637
636
618
556
544
584
643
605
559
552
634
599
527
509
488
468
470
477
517
551
520
468
452
414
395
405
458
478
458
493
505
506
487
463
457
489
515
497
500
535
496
475
474
414
406
465
493
508
574
592
549
488
468
488
516
511
507
478
467
537
520
505
546
570
544
556
586
560
524
476
454
496
548
520
511
523
567
606
551
498
498
533
568
587
581
560
556
554
458
503
583
563
562
553
525
513
499
501
508
464
497
561
579
566
538
532
523
543
611
599
539
483
468
495
508
526
525
533
547
422
448
533
517
494
559
561
565
551
547
496
514
522
523
450
472
528
515
479
497
519
563
623
565
434
396
416
448
496
501
494
496
501
506
506
515
537
564
555
528
470
432
490
519
519
490
499
533
578
562
488
497
509
465
462
505
495
490
497
543
546
506
494
548
576
548
515
528
590
584
537
514
494
482
378
384
517
574
610
605
590
527
502
517
549
539
551
592
569
530
577
573
531
471
488
513
509
534
588
603
556
538
544
504
517
508
554
570
599
580
535
515
473
464
583
648
651
552
474
470
514
510
482
480
477
463
462
488
492
467
451
446
446
434
419
465
480
463
466
476
490
517
568
643
707
764
809
864
926
978
953
904
853
784
728
678
599
508
468
472
469
467
439
416
383
374
388
410
432
446
457
440
413
415
386
368
367
399
435
428
392
389
404
394
402
470
491
463
420
380
399
411
405
439
415
419
457
464
479
472
459
469
435
379
396
477
504
496
511
500
484
463
475
491
483
461
452
468
474
445
481
512
434
397
440
504
553
555
521
531
539
529
526
557
565
595
622
597
568
537
509
533
535
506
554
620
696
729
664
573
542
505
521
569
585
582
562
597
584
517
505
516
492
467
464
469
473
449
433
437
448
470
478
468
437
407
424
446
413
426
441
434
398
340
362
412
426
431
450
397
390
431
463
430
365
375
434
453
447
492
469
422
419
424
427
433
424
427
443
453
454
441
464
492
485
469
469
496
525
529
510
444
431
448
478
470
448
475
491
483
487
455
444
454
445
440
448
444
468
485
490
503
492
465
492
529
540
487
455
467
503
517
477
468
489
530
519
506
492
479
467
472
463
455
454
455
476
471
449
450
449
477
486
501
519
507
469
470
484
471
448
479
480
504
528
516
520
560
531
505
468
470
531
521
542
560
547
523
505
519
511
547
558
577
556
505
519
550
531
492
473
479
491
505
556
607
602
574
547
529
532
596
576
529
506
497
521
514
495
553
564
547
512
486
517
510
510
492
498
529
522
497
493
530
557
531
501
486
471
532
598
596
557
528
524
467
515
502
476
501
508
494
552
602
593
622
619
546
479
422
398
392
406
422
446
480
541
518
474
468
477
494
522
541
521
453
414
402
468
501
515
495
484
461
468
465
502
531
588
676
769
823
834
880
929
933
955
922
854
781
724
628
519
425
433
419
419
434
454
436
392
363
346
359
436
493
473
432
414
398
415
439
423
416
432
436
461
493
448
430
460
486
486
460
451
437
450
490
502
482
464
443
409
405
411
453
482
504
504
482
444
462
483
495
502
480
464
465
471
475
489
465
472
506
504
445
458
490
517
472
449
449
453
499
553
575
523
483
497
503
532
534
526
529
539
564
580
583
574
547
525
512
532
568
546
559
557
591
605
587
549
552
504
461
460
458
459
468
493
508
494
483
483
460
440
425
416
429
416
411
409
417
415
377
442
455
440
432
433
442
432
422
438
433
413
389
420
467
502
459
411
413
429
429
447
443
434
452
466
510
515
484
479
438
427
452
473
472
490
540
548
522
494
491
499
504
511
516
532
542
501
500
494
493
495
484
495
528
539
518
510
493
480
492
504
498
501
544
572
554
503
491
495
494
492
491
503
517
535
505
519
534
523
507
500
472
462
459
487
514
545
534
520
517
517
501
490
491
511
536
541
527
510
488
482
483
496
505
499
492
492
520
524
524
548
534
514
499
513
532
508
460
462
460
478
467
453
466
475
476
494
500
501
505
516
517
524
528
523
512
506
513
524
519
503
494
492
463
466
466
507
559
555
527
510
518
536
532
524
501
502
519
539
551
521
511
560
567
557
541
524
509
495
508
531
536
547
549
532
506
504
526
532
530
527
499
478
478
457
445
459
485
470
453
454
472
476
496
486
493
483
509
523
516
484
475
476
497
509
481
477
502
543
594
677
769
839
881
915
919
923
934
925
879
817
754
647
528
492
483
480
458
466
467
468
499
535
510
483
440
391
385
448
454
461
476
499
511
520
502
490
511
483
446
455
476
488
491
471
446
419
418
439
465
477
473
439
452
512
504
443
409
406
418
448
460
483
497
505
503
464
462
464
480
535
540
526
484
483
474
450
484
508
512
496
486
487
482
499
518
527
518
524
514
498
520
557
579
600
569
565
597
579
494
473
535
577
569
556
545
535
527
541
564
574
568
573
559
544
532
538
535
520
507
501
487
493
481
458
425
411
412
438
457
427
397
382
378
382
393
410
451
420
385
362
369
370
390
394
389
414
429
439
440
443
455
448
441
422
423
421
443
452
479
518
549
532
488
463
442
421
422
440
471
497
483
460
459
477
496
502
480
471
481
473
480
488
470
442
467
543
578
574
537
520
480
447
449
478
497
492
463
481
497
513
503
498
487
478
476
516
548
494
440
369
407
477
481
446
436
467
498
500
473
450
441
438
442
446
453
453
417
393
406
433
439
448
472
507
510
475
466
473
472
439
401
402
419
454
489
514
499
490
469
444
451
457
459
471
493
514
529
540
558
562
543
526
521
538
543
561
570
597
611
591
565
558
560
550
568
609
666
642
615
562
610
621
595
588
595
594
568
551
565
563
570
604
627
609
596
594
599
608
620
614
609
609
579
551
547
541
545
562
582
610
665
722
770
821
869
901
931
953
969
926
837
756
692
615
546
517
506
527
520
487
464
453
465
491
547
604
577
510
468
466
481
478
477
533
574
591
574
583
573
555
524
508
505
505
534
560
531
539
537
521
546
564
558
522
495
486
460
475
551
609
621
594
533
504
533
571
555
528
517
507
477
432
457
524
540
516
513
525
556
579
577
524
499
495
487
474
483
523
497
442
434
485
531
565
594
597
599
592
565
577
607
633
639
630
609
601
622
663
634
588
574
577
567
555
568
601
644
663
626
553
559
582
562
580
603
573
515
488
481
471
456
477
500
492
479
452
472
495
493
474
475
497
523
506
458
419
406
442
468
484
491
479
471
489
483
478
467
454
478
495
486
458
456
461
468
459
453
450
439
423
430
434
425
434
454
464
435
393
402
445
463
462
451
448
442
441
452
462
472
472
475
467
460
450
452
458
463
462
446
438
435
480
517
501
494
519
478
415
417
433
478
499
496
477
437
422
438
470
486
462
447
467
483
514
543
580
578
542
528
541
555
535
513
532
549
573
590
616
609
588
582
575
576
579
618
643
643
621
603
599
612
632
622
616
622
605
596
600
634
640
585
574
553
540
550
558
565
575
581
580
549
521
525
546
586
618
617
576
491
468
475
476
485
498
538
577
579
574
588
647
718
790
844
856
877
905
878
808
755
732
706
654
562
501
449
407
399
423
439
462
470
436
402
403
408
401
426
436
420
414
432
458
436
410
416
430
437
444
449
454
445
441
464
494
479
477
488
509
513
527
540
517
510
522
529
527
550
556
575
542
488
481
498
509
525
510
522
553
557
531
548
619
649
584
548
550
548
532
522
533
555
578
607
605
622
589
573
601
596
561
560
562
574
579
589
604
654
680
643
603
578
573
557
552
554
558
596
626
613
586
568
543
571
590
546
545
555
538
509
477
444
429
426
436
424
396
396
389
424
459
447
449
430
419
389
396
459
497
466
421
406
430
457
460
463
448
432
440
465
473
465
444
453
446
462
459
465
460
455
467
485
457
448
448
464
473
475
469
481
509
509
472
420
393
439
477
503
521
489
467
465
461
471
474
470
473
499
496
472
464
470
476
466
459
458
469
481
485
479
448
433
448
480
485
493
495
489
467
463
445
445
455
491
460
448
451
462
473
496
476
453
461
494
541
550
520
485
468
449
443
452
477
480
469
485
510
506
483
503
507
489
486
474
471
477
485
492
510
514
485
492
485
443
457
492
487
483
479
490
487
465
444
476
532
498
426
420
434
444
449
439
476
480
470
471
475
506
492
485
507
550
635
695
747
800
855
890
894
871
827
777
727
635
542
493
474
464
440
421
403
351
323
327
347
370
358
358
381
409
423
369
349
362
371
388
402
397
414
404
394
405
414
409
403
411
419
410
407
428
438
450
473
478
466
471
468
474
470
470
471
472
460
452
476
505
490
474
464
465
484
496
482
489
519
537
550
538
521
508
500
508
500
503
519
518
513
521
540
548
569
610
618
619
609
596
580
553
534
525
555
552
562
589
573
548
538
539
551
560
542
527
531
529
533
543
523
530
556
540
500
465
423
395
442
459
434
413
408
417
419
406
365
345
359
401
443
433
420
407
401
409
414
426
453
450
399
348
359
391
407
409
411
414
423
414
400
435
447
449
475
480
483
480
468
459
464
453
437
450
486
493
458
466
483
453
457
485
484
476
462
469
492
496
495
484
481
448
430
451
451
453
450
456
474
518
557
567
533
488
463
508
535
509
469
465
486
504
497
468
480
482
500
516
527
522
498
493
496
501
504
496
490
477
497
493
478
489
507
527
533
521
537
532
524
513
496
496
488
475
481
510
535
508
478
483
524
539
546
548
548
555
544
556
543
537
535
532
535
561
534
509
532
511
493
500
516
514
521
534
520
518
544
564
550
537
532
534
545
534
504
477
475
492
488
499
528
543
556
557
545
543
545
539
534
493
480
473
479
513
519
491
469
517
594
664
724
794
861
905
959
1012
1019
1009
963
896
833
741
626
518
466
461
465
476
490
482
472
408
341
379
415
404
406
430
428
421
406
404
413
391
377
416
448
441
435
435
479
507
463
438
412
388
416
459
471
488
494
517
526
523
497
482
475
474
484
484
493
530
551
537
539
556
560
528
485
457
438
449
485
514
521
530
565
580
567
591
583
572
560
553
562
563
552
554
544
557
590
596
606
595
602
608
626
627
613
595
633
664
640
595
574
545
547
569
595
625
594
558
543
528
553
576
581
565
543
513
501
502
502
505
506
483
457
441
429
408
420
414
406
443
445
423
411
391
422
455
457
445
429
424
451
456
443
456
476
459
448
437
423
425
418
405
404
471
541
554
497
460
454
468
498
503
457
443
454
472
502
497
508
521
499
500
516
518
497
473
474
495
483
459
461
461
468
464
467
487
481
479
474
469
476
499
539
595
619
568
510
489
491
497
507
499
518
520
497
488
487
482
458
496
531
521
521
500
475
473
521
563
575
556
524
502
510
503
485
472
472
503
534
546
545
545
530
482
466
516
574
553
495
512
512
494
496
511
516
508
510
519
509
494
503
522
534
528
513
518
537
564
567
549
528
519
513
496
486
511
514
478
476
507
509
490
483
497
515
511
516
523
516
516
547
565
542
520
502
525
543
537
530
544
546
539
526
536
547
554
560
558
551
545
521
523
523
509
518
535
566
549
523
503
491
489
499
484
487
502
491
487
495
517
503
500
509
494
465
469
494
504
496
468
463
487
526
563
603
652
733
794
846
903
971
1017
1023
1023
969
877
784
696
583
493
444
428
425
432
411
400
399
393
374
395
410
411
397
402
382
346
351
378
405
416
421
421
418
431
437
458
476
445
419
407
405
412
445
461
468
492
506
485
470
456
448
430
436
461
474
474
478
464
446
447
443
456
494
500
478
465
476
494
493
503
531
564
585
597
573
551
543
551
548
543
554
543
537
552
553
540
557
596
616
608
558
547
574
602
592
560
562
591
617
609
600
590
582
572
570
561
549
541
541
536
549
561
532
504
489
474
459
453
466
468
435
400
399
409
410
396
396
417
425
441
423
390
379
383
420
440
435
436
423
425
395
414
433
428
426
429
418
416
414
420
411
414
444
456
444
430
433
437
448
468
460
454
449
447
455
454
460
457
474
489
501
495
445
398
417
446
467
501
514
523
512
467
445
453
473
479
492
497
502
496
483
469
471
463
437
434
451
476
503
523
526
515
494
475
465
465
480
498
492
465
464
477
501
525
528
516
502
531
534
489
476
500
515
509
520
525
528
527
528
541
526
510
499
498
530
531
512
496
500
503
506
512
518
524
515
491
488
509
529
549
551
530
524
542
547
535
546
555
549
523
488
497
516
552
583
586
554
542
526
524
526
527
527
526
524
517
537
556
572
562
552
552
536
511
499
495
498
500
488
494
497
499
515
524
522
537
537
523
517
527
535
534
516
502
503
503
514
520
551
603
659
688
732
775
794
798
826
872
889
848
777
724
647
558
483
434
419
425
428
425
447
489
495
456
433
431
438
447
438
434
462
512
505
478
447
443
451
462
498
501
477
470
438
436
457
457
462
491
515
508
498
482
481
508
530
523
488
470
490
487
492
507
506
509
526
540
534
527
508
519
536
529
519
526
527
529
537
537
537
545
555
560
561
573
555
547
559
556
556
579
591
595
601
605
609
622
615
592
599
620
614
607
604
627
665
682
661
635
604
575
550
558
559
559
560
559
557
546
546
524
503
487
460
458
446
447
453
466
462
459
438
413
424
423
424
400
382
394
410
426
420
423
431
440
447
441
439
438
430
467
490
468
453
451
449
473
478
480
486
488
492
474
453
456
480
506
515
510
500
488
490
478
453
465
481
480
488
484
502
508
506
514
537
551
526
520
525
528
526
518
504
493
462
458
487
495
506
515
513
507
511
510
491
485
496
528
558
528
508
501
477
461
458
490
489
492
502
522
516
476
461
453
453
468
467
481
495
502
503
485
474
521
569
547
490
423
405
439
477
501
512
509
512
514
509
485
458
465
505
531
509
492
482
454
460
481
509
529
542
511
463
457
484
509
550
535
506
475
467
466
481
526
554
521
483
494
473
462
483
487
503
526
508
492
487
511
542
517
478
491
477
456
488
531
517
501
486
498
507
532
531
492
483
488
496
505
515
502
488
489
512
579
664
711
773
805
831
863
888
906
934
914
856
786
699
602
515
491
485
478
450
439
441
456
445
427
411
408
409
395
391
427
450
465
467
461
437
416
433
472
454
481
489
458
450
456
454
466
501
518
512
500
503
509
517
518
515
467
460
482
534
563
558
518
520
535
553
557
546
534
516
502
539
575
582
538
507
531
557
540
533
556
582
564
532
548
577
569
565
560
574
568
576
574
586
618
643
643
617
588
581
609
633
638
638
639
616
600
614
600
579
595
596
584
612
619
606
610
622
596
553
535
524
543
552
541
530
530
508
491
513
518
505
497
480
467
462
481
525
513
487
494
508
496
483
469
470
476
476
463
535
592
566
541
529
542
536
517
518
527
545
561
560
561
551
556
534
533
527
534
564
569
539
494
482
473
486
541
583
594
583
537
520
519
515
493
492
503
506
478
472
516
543
557
561
563
539
526
496
513
536
592
599
567
587
575
553
546
561
564
552
534
524
516
520
555
573
545
544
579
601
608
595
560
531
544
585
609
618
596
625
637
578
555
542
524
511
532
579
605
598
554
535
540
545
548
552
522
503
487
500
542
572
601
635
601
546
514
493
495
515
553
553
550
543
558
558
533
535
541
534
543
539
523
530
534
553
550
548
537
524
532
570
572
554
548
551
555
539
526
542
545
538
532
540
557
548
522
519
521
514
491
488
496
487
493
507
526
515
512
503
488
495
508
488
478
477
468
484
492
512
547
565
566
577
658
752
823
882
899
914
940
956
931
838
734
664
595
531
494
459
415
429
449
461
416
371
347
359
378
388
419
419
405
382
386
425
431
418
409
401
417
427
418
409
417
422
430
446
449
447
429
414
415
434
467
477
451
458
464
452
480
511
508
483
455
450
446
488
488
462
452
452
477
508
478
443
464
493
524
542
548
495
467
456
470
518
538
528
513
544
570
550
511
492
495
510
527
528
541
543
510
509
532
549
567
585
602
579
536
513
514
524
530
524
512
527
547
526
495
464
426
406
466
540
489
423
396
368
382
393
379
382
401
385
361
345
334
333
336
337
342
348
350
370
402
377
356
362
403
417
402
365
353
367
379
389
397
398
409
440
441
419
424
415
424
452
432
412
399
423
429
419
434
453
436
442
446
433
440
472
484
457
436
434
421
413
427
453
455
449
459
450
458
478
481
481
466
479
484
479
462
465
475
473
481
472
448
417
422
444
487
500
462
481
473
449
448
453
456
452
463
489
523
517
471
447
432
437
449
472
478
474
477
475
477
494
492
491
505
502
500
513
513
491
472
425
413
442
454
451
470
482
493
485
467
467
477
463
460
482
483
467
472
479
501
502
499
503
477
454
492
545
568
555
512
471
468
494
522
532
548
564
540
508
500
489
479
473
482
491
510
519
518
500
500
510
528
530
535
526
511
519
539
543
543
537
558
553
542
510
482
488
508
522
535
524
505
504
492
511
512
480
457
451
461
482
490
487
471
465
459
441
432
441
468
485
477
465
463
495
527
562
593
650
749
807
828
858
890
910
917
884
813
740
673
556
441
369
356
380
408
408
398
398
387
375
361
353
356
360
372
360
365
358
349
347
361
382
395
400
409
413
416
427
443
420
413
430
430
423
425
446
457
458
462
483
480
480
466
464
469
473
468
464
457
461
468
474
535
559
524
496
485
506
529
529
506
512
529
526
508
506
506
509
509
534
533
500
527
570
568
569
556
539
554
574
589
571
518
500
524
552
574
584
566
564
565
580
577
561
555
554
553
565
572
582
591
577
543
501
480
479
484
485
464
448
441
439
449
453
437
423
415
408
405
407
398
389
383
372
372
398
431
418
401
415
431
423
418
415
412
434
442
436
448
484
495
482
464
459
429
415
417
426
441
467
474
466
430
426
452
448
443
467
496
493
469
452
463
495
501
492
496
489
476
474
480
483
495
483
500
481
486
508
480
446
437
455
470
491
503
492
466
462
490
502
494
476
462
449
474
514
536
522
492
473
483
501
501
499
509
513
496
476
466
472
496
509
509
521
539
533
507
484
474
487
492
483
503
496
508
520
502
492
490
507
536
530
517
529
535
532
515
502
503
519
539
519
487
481
498
520
527
520
485
461
470
495
528
542
551
566
555
524
509
505
498
498
504
516
531
572
563
558
531
515
541
521
523
539
532
530
528
509
497
489
490
494
505
535
554
559
556
547
547
531
494
519
545
554
553
529
514
511
533
553
585
608
598
563
551
546
531
531
536
546
562
572
575
582
583
580
599
590
550
525
508
502
502
506
505
505
512
526
531
517
506
506
505
520
533
541
532
519
493
484
493
490
499
547
559
587
624
680
753
825
872
914
960
970
972
975
904
835
782
676
562
480
434
415
418
428
435
441
430
405
401
417
431
419
405
422
425
416
440
455
455
451
417
400
421
457
459
417
395
403
420
445
476
503
482
461
440
429
447
461
470
470
478
482
477
478
479
476
488
504
530
530
515
493
503
502
506
520
534
544
537
518
515
530
530
520
520
527
521
513
527
549
557
565
563
563
575
569
562
566
561
560
574
583
598
603
618
626
641
655
641
584
569
624
628
617
605
587
568
545
538
543
553
562
562
548
529
513
460
440
465
466
457
451
455
457
450
435
431
445
451
427
420
421
417
424
444
463
461
451
457
437
426
416
400
401
415
442
479
493
479
475
455
442
468
466
484
487
478
479
473
476
484
482
483
478
472
471
487
503
514
521
512
495
476
486
521
520
531
545
509
486
487
505
504
492
492
503
502
499
492
483
469
476
495
529
545
537
493
459
451
448
462
491
522
548
555
553
526
508
502
495
477
496
504
477
485
465
493
522
509
481
470
477
497
541
549
527
514
491
471
474
499
530
540
531
505
494
501
492
497
522
524
505
481
482
504
524
528
545
571
561
521
500
480
465
499
522
555
530
508
499
512
515
512
518
512
521
536
539
527
523
528
535
510
514
529
541
540
534
529
524
548
562
548
509
508
503
503
533
541
555
543
508
508
493
494
512
512
517
532
539
516
501
519
528
538
546
559
561
550
543
551
589
598
557
542
538
539
538
536
539
546
563
581
575
562
547
518
521
547
562
545
542
513
507
496
480
478
494
521
540
542
528
538
533
503
504
531
567
565
529
496
486
477
456
454
489
541
600
662
732
806
866
921
950
996
1023
1023
996
903
811
719
616
536
504
473
459
454
452
438
407
384
383
377
380
395
419
429
421
417
426
432
430
418
442
480
477
450
440
417
394
415
450
486
506
481
440
432
458
464
486
486
501
526
523
480
452
424
448
503
510
512
507
478
485
502
518
523
517
541
537
511
493
502
509
510
526
527
528
549
554
573
576
585
570
536
543
540
554
566
589
619
635
630
577
551
574
590
589
573
585
601
581
569
601
620
614
598
603
616
611
612
604
576
561
530
520
544
552
530
512
505
479
473
464
443
449
466
472
464
441
459
453
431
425
431
446
474
480
463
439
422
429
429
435
420
405
424
456
493
490
460
436
450
471
465
450
442
455
461
466
449
467
487
497
506
510
506
481
484
504
511
510
466
461
465
474
467
482
498
527
518
506
510
519
498
468
465
476
470
470
491
510
521
522
520
498
503
506
511
501
494
498
483
474
470
449
459
486
499
503
504
508
514
500
467
454
487
515
523
533
532
524
483
460
465
512
534
488
465
466
471
480
491
497
492
488
494
494
487
485
506
537
521
515
516
513
512
491
484
482
471
463
461
488
509
510
499
510
528
526
506
501
501
496
483
459
457
487
518
562
568
532
495
489
493
494
512
498
493
505
512
510
507
489
513
526
491
481
503
501
496
515
535
544
531
519
531
539
539
535
527
525
541
575
582
556
523
518
495
487
499
503
492
479
469
485
474
473
474
475
479
475
464
495
521
508
523
516
525
527
495
456
427
435
471
507
555
606
662
734
808
866
934
990
1016
1017
1010
926
813
691
579
475
415
408
403
399
415
431
433
433
446
439
403
369
365
380
394
388
395
400
396
394
399
411
415
415
414
414
422
428
425
447
447
434
444
467
479
469
465
464
472
482
507
514
497
465
471
459
467
500
515
501
499
491
476
504
556
546
518
514
517
505
450
420
473
509
532
541
532
541
556
556
570
575
566
556
566
593
609
598
571
551
563
576
587
603
587
603
590
587
618
642
635
593
577
594
595
561
560
567
570
574
561
544
541
541
518
492
476
483
501
510
508
488
467
455
437
440
455
469
462
473
459
427
418
413
372
388
408
427
429
424
437
442
439
439
448
449
457
455
445
424
432
457
472
489
494
476
493
525
535
539
523
501
488
489
487
481
541
537
512
494
520
539
513
501
502
493
469
462
494
519
505
513
501
475
454
450
472
479
496
526
496
480
484
493
513
527
536
508
499
505
514
522
531
515
508
500
504
500
470
450
461
462
464
460
464
475
478
491
525
527
520
549
541
540
538
523
544
518
484
478
497
517
527
531
519
509
519
527
468
448
487
492
489
480
482
481
478
505
551
588
579
558
531
494
512
525
490
492
539
523
525
515
491
483
474
488
510
541
578
551
533
505
473
474
504
533
565
587
570
505
508
538
561
550
533
534
530
526
507
505
516
489
484
484
472
479
467
467
477
464
467
464
491
508
529
571
566
519
476
468
485
494
483
494
524
552
594
670
764
850
924
976
1012
1023
1023
1007
926
860
753
569
453
440
447
439
432
388
374
377
370
372
342
332
351
375
390
391
415
414
421
442
454
461
450
457
447
415
397
396
418
433
435
405
379
386
471
559
571
535
490
477
488
509
515
501
499
518
523
517
475
478
516
524
520
504
507
501
497
510
525
537
540
568
586
546
519
486
484
515
535
541
542
553
546
524
544
548
562
569
575
585
562
576
574
576
572
620
608
591
602
625
625
587
562
555
557
568
580
581
583
584
571
549
552
538
520
512
513
516
500
483
446
428
454
449
440
410
385
376
372
390
399
409
427
418
440
456
492
506
440
375
374
413
435
424
394
397
439
479
485
478
471
491
489
437
406
410
409
418
434
460
466
464
468
473
465
472
502
524
554
530
496
460
448
455
460
470
452
466
481
487
519
527
500
485
468
475
483
490
490
491
517
504
489
472
467
473
499
508
484
491
525
509
483
509
504
450
421
422
470
494
519
538
534
502
486
489
484
457
453
448
455
475
494
499
516
504
479
476
489
450
442
455
472
488
499
489
492
526
523
494
487
488
480
480
487
499
506
526
543
531
512
497
517
524
511
511
479
496
517
523
500
480
487
475
475
502
457
453
465
472
445
459
488
505
512
503
495
489
490
468
455
492
510
487
447
428
472
533
607
695
753
800
883
927
934
936
924
854
769
691
599
509
445
455
464
444
401
367
359
367
402
433
430
406
384
395
438
435
438
444
440
426
413
432
411
397
427
460
464
450
451
425
421
436
440
465
493
484
470
455
482
503
496
459
456
477
497
518
502
482
480
499
512
512
490
484
481
483
489
516
553
561
532
510
509
520
545
551
564
561
586
584
593
561
552
565
551
518
511
522
523
538
575
578
557
551
566
603
628
624
614
607
594
571
563
571
605
643
660
612
555
521
525
520
499
473
463
462
446
423
433
438
439
436
461
461
444
430
407
402
414
429
434
420
410
393
391
390
375
407
435
432
419
389
386
396
428
431
439
436
459
476
494
514
501
451
429
443
452
453
465
503
498
467
460
498
515
493
497
472
446
459
476
453
453
471
481
484
491
496
504
512
496
486
499
517
532
551
538
511
502
495
485
477
497
510
517
517
501
477
455
475
501
519
527
522
523
527
518
493
496
506
510
507
501
510
515
529
538
538
523
508
497
474
540
566
543
546
566
566
531
507
521
551
588
569
515
503
490
478
488
503
520
519
539
549
554
547
542
583
617
600
587
564
531
534
532
531
533
545
549
569
563
526
502
516
526
508
504
517
533
548
560
553
537
534
538
498
460
464
485
508
502
487
496
500
503
525
536
518
500
495
491
516
579
679
729
809
876
923
969
1004
1019
1008
1018
927
780
670
578
496
453
450
453
439
429
430
435
445
448
418
391
387
408
440
449
444
448
463
460
436
424
424
428
415
428
426
441
439
456
444
439
456
471
455
417
421
451
474
482
479
477
449
449
476
520
540
529
504
481
483
478
497
515
506
481
464
466
478
512
549
565
540
514
520
529
524
545
557
561
539
540
553
559
560
549
533
559
586
598
595
561
552
550
566
588
613
609
598
588
594
611
609
597
587
574
577
558
535
569
595
576
526
493
472
455
436
423
442
435
431
435
439
444
463
498
497
454
423
414
420
423
427
419
414
418
429
426
415
430
454
473
484
474
446
418
421
391
384
421
412
424
440
438
438
431
432
450
465
445
453
488
519
517
492
488
494
501
515
502
488
487
513
513
490
470
494
511
501
489
474
475
505
517
511
514
527
536
530
536
503
458
454
455
438
444
490
495
475
479
512
538
542
573
558
521
502
494
518
530
506
501
519
528
530
532
504
487
469
456
472
520
574
588
561
505
470
457
469
498
506
526
517
478
469
464
505
528
541
514
479
483
501
515
548
564
523
500
492
491
514
510
497
482
488
505
541
559
577
574
564
569
570
549
527
475
488
524
535
549
556
549
510
451
455
490
499
508
480
430
449
532
542
538
527
554
544
506
477
491
489
452
475
491
484
534
536
489
459
438
437
431
433
460
454
458
469
481
472
455
468
444
453
453
467
508
576
617
683
798
876
896
927
949
953
929
867
821
768
659
552
475
423
391
349
326
343
380
391
370
331
320
336
360
400
419
418
409
373
335
366
388
384
389
424
445
444
425
410
410
404
400
436
458
455
443
463
487
450
463
500
507
524
580
652
590
484
419
436
509
536
537
555
561
555
526
508
526
544
548
537
539
535
542
509
486
491
504
515
529
583
622
586
590
591
603
624
631
613
610
632
620
620
641
686
686
628
589
585
590
602
625
622
603
596
605
594
578
570
583
625
658
616
576
554
503
493
483
478
484
491
492
485
449
422
425
429
458
420
392
396
409
406
404
396
392
417
462
483
478
435
413
421
447
463
459
455
456
482
481
453
418
402
422
447
467
489
493
469
480
482
523
570
549
496
436
412
393
446
512
537
492
452
442
441
454
478
496
514
497
483
490
506
517
530
500
456
415
414
446
471
512
523
522
523
488
477
474
478
524
541
513
498
517
546
518
496
501
504
526
527
513
489
463
453
465
507
522
519
531
568
565
558
570
551
524
528
561
568
543
515
531
576
583
558
542
525
516
523
544
532
482
462
473
489
503
526
549
564
592
603
593
550
509
537
585
607
595
563
526
513
505
536
552
562
569
555
522
512
501
512
545
558
542
528
528
523
544
578
606
582
540
521
499
481
498
517
528
539
543
570
577
561
565
570
525
494
482
482
508
522
526
526
550
583
567
541
532
555
540
547
561
590
609
579
539
531
524
531
533
532
504
493
485
484
490
560
570
532
483
464
454
455
479
511
526
540
551
547
533
522
509
494
506
511
546
567
610
686
768
817
860
924
977
1006
1005
1001
970
912
819
729
614
511
456
447
488
489
457
437
431
455
494
479
417
378
366
371
389
393
392
379
387
403
423
471
497
479
433
395
390
424
439
445
463
506
527
506
476
457
457
468
473
459
445
463
499
542
564
543
504
466
457
496
518
512
532
554
546
535
548
555
568
573
564
551
550
531
502
494
540
573
573
572
568
567
554
525
504
554
601
598
579
582
615
645
617
601
583
566
583
591
578
591
600
606
572
556
570
595
622
647
630
587
562
549
534
541
532
534
513
484
478
457
423
403
399
411
395
407
412
427
440
421
370
366
388
412
449
451
440
425
413
420
413
390
410
466
488
466
446
434
426
412
410
449
453
450
443
469
488
490
459
443
452
474
488
489
481
497
479
437
431
436
446
484
469
458
458
455
450
466
521
548
555
518
486
466
474
484
480
485
482
478
451
440
465
476
478
470
449
465
475
487
509
531
524
472
443
455
467
455
441
444
474
492
509
531
492
480
469
483
496
541
556
522
482
454
466
467
480
494
493
507
487
489
486
489
459
453
478
500
522
546
493
467
483
496
458
436
469
516
516
499
485
476
476
490
502
490
504
520
531
509
480
493
506
494
473
479
508
520
540
536
519
528
520
494
505
529
503
494
506
509
506
500
482
472
476
482
491
492
488
487
508
528
509
472
453
456
513
541
533
501
499
494
472
452
461
465
486
531
544
548
541
523
509
506
526
538
530
520
567
581
570
545
506
495
512
520
535
535
540
529
467
428
442
464
476
496
503
505
501
495
514
543
532
516
508
545
546
523
499
485
462
474
496
479
496
511
518
531
546
584
648
734
766
768
829
930
996
996
991
957
876
773
649
543
448
369
365
390
401
397
378
372
393
400
401
384
378
368
348
339
324
317
349
412
434
457
455
433
411
399
389
398
418
439
468
483
431
387
381
380
395
412
422
434
442
443
444
455
446
440
447
473
489
508
511
514
522
503
451
450
478
476
468
465
497
504
550
558
516
481
481
503
540
549
506
467
476
523
541
557
582
586
568
557
563
568
590
606
609
606
589
570
559
577
607
633
629
629
626
602
582
581
594
575
554
543
559
555
506
464
483
507
512
462
437
432
437
454
448
437
428
441
452
441
423
438
458
468
496
474
445
460
473
473
454
439
414
403
453
457
441
441
470
523
508
474
439
433
451
488
493
510
541
537
499
460
439
473
518
550
561
509
448
432
439
464
556
601
553
484
468
496
517
520
490
489
508
513
514
507
506
505
531
557
528
515
518
515
525
539
518
505
520
535
566
558
561
574
551
532
504
503
523
550
547
545
525
505
518
499
506
494
494
541
578
574
494
447
488
514
540
542
517
497
474
480
495
510
530
547
535
524
545
551
518
504
536
535
535
522
522
554
539
510
509
497
455
487
520
468
444
473
544
551
544
562
532
518
552
543
512
492
469
424
409
376
351
331
322
370
419
404
366
339
319
338
365
375
389
395
381
394
390
393
410
451
467
425
371
348
357
385
420
443
441
432
415
419
431
453
476
505
502
461
434
412
430
414
421
474
531
570
568
527
498
484
486
506
502
487
496
497
487
454
465
475
471
472
518
557
552
546
551
543
534
523
516
519
521
491
474
529
579
597
630
677
774
863
918
945
1014
1023
1023
1017
922
817
730
619
535
503
491
491
473
434
414
401
431
461
523
531
485
464
466
468
482
510
543
535
498
475
483
473
496
521
503
464
449
451
438
462
451
456
480
541
526
526
533
523
529
543
553
555
532
527
529
527
523
512
521
542
540
545
544
537
504
482
487
514
541
568
592
574
568
588
586
567
570
565
575
572
571
569
565
558
551
564
563
569
574
607
625
585
564
583
558
550
556
570
568
568
564
562
578
594
602
617
596
545
494
482
482
490
483
460
430
446
499
510
457
410
413
438
485
473
443
407
397
370
345
364
409
415
412
453
495
510
535
564
535
495
494
514
539
552
551
539
526
548
588
601
597
554
553
594
604
595
567
554
569
564
526
551
598
635
629
592
569
531
550
560
558
552
577
597
594
542
526
530
530
524
514
508
514
533
568
595
600
567
546
560
556
546
533
520
524
520
542
580
591
592
553
533
522
487
476
478
496
499
527
559
544
555
570
550
537
521
506
505
518
537
544
510
508
521
534
549
552
557
558
563
544
556
578
585
572
547
556
564
559
572
590
571
568
573
546
494
495
528
564
576
569
563
558
545
569
588
602
564
537
583
608
612
599
594
619
639
607
572
548
544
544
538
530
529
531
506
518
548
565
565
555
526
494
490
500
519
520
495
463
478
489
528
522
489
510
518
513
517
503
497
484
454
454
463
475
518
600
691
748
798
868
924
948
954
946
906
863
801
718
627
537
481
423
373
368
388
422
434
438
395
373
379
335
325
401
448
471
477
497
460
399
426
415
402
400
417
388
376
422
453
430
431
448
458
484
489
467
483
511
521
468
435
422
453
480
502
548
534
523
516
482
470
533
586
573
548
511
503
492
504
523
538
536
541
545
568
603
593
555
534
570
595
600
620
625
609
583
559
530
565
627
618
632
640
632
620
608
624
631
647
673
678
675
639
584
564
550
550
601
573
510
518
568
579
585
567
529
547
576
557
503
455
427
407
427
450
442
420
417
445
477
501
475
398
382
391
418
440
441
423
422
432
465
520
487
424
410
400
379
435
514
539
509
453
454
440
439
451
451
476
492
489
489
489
511
541
524
473
464
471
471
504
518
523
553
519
487
490
480
489
556
563
538
538
510
490
485
510
508
497
500
506
462
459
477
501
504
524
535
510
486
448
458
478
496
504
506
497
460
479
520
531
506
470
459
477
482
477
472
466
458
469
508
534
544
529
503
474
476
460
434
433
480
503
541
577
502
467
434
413
448
484
491
504
491
479
477
492
492
510
521
498
473
459
442
468
492
467
454
471
483
490
491
552
578
548
503
471
464
466
464
472
461
485
521
541
579
576
533
478
446
413
400
462
480
478
491
493
485
476
477
473
466
472
437
418
428
432
455
441
455
464
454
420
399
390
412
415
397
408
432
453
453
400
423
438
422
415
394
417
490
579
651
694
729
789
842
880
930
955
956
902
793
707
595
508
443
391
374
382
417
440
405
367
339
321
296
301
335
364
371
353
358
373
388
382
386
416
431
431
419
403
385
383
398
409
414
409
426
444
415
392
406
431
429
414
420
409
403
407
441
462
460
479
519
497
507
499
443
407
423
466
474
465
466
485
489
469
470
436
434
449
458
471
471
474
467
473
500
511
514
528
561
575
545
532
508
545
588
565
517
507
520
537
550
548
584
595
578
590
570
547
522
521
513
503
499
519
549
531
497
493
480
438
429
419
406
413
413
423
430
414
397
422
440
435
428
421
428
437
411
380
366
351
354
367
358
402
432
396
391
387
386
401
457
492
502
513
491
463
444
436
436
413
434
458
482
526
523
494
475
475
459
458
528
553
505
462
465
490
500
488
493
506
493
485
486
500
525
551
556
572
572
556
529
500
502
503
500
522
535
519
534
549
537
519
550
536
474
458
475
485
491
540
580
549
510
493
494
494
502
497
528
505
483
494
525
524
509
522
543
547
529
499
494
500
518
535
533
523
508
494
517
526
530
541
525
519
511
508
517
512
487
461
446
485
495
491
516
533
510
497
510
529
560
561
536
499
489
487
492
491
487
493
509
492
476
499
535
534
509
511
513
538
529
533
557
548
542
528
513
504
488
475
498
519
517
505
508
489
482
518
554
557
554
557
562
543
536
533
541
540
555
537
511
506
505
510
529
569
602
588
547
530
519
501
479
470
492
511
524
523
495
470
479
503
504
506
525
525
516
527
515
488
463
479
491
469
472
494
521
587
646
710
784
881
972
1023
1023
1023
1023
993
941
858
748
613
499
438
411
399
399
420
411
411
422
422
425
385
385
403
372
337
344
365
370
370
366
374
401
437
444
455
469
453
428
420
414
435
438
425
436
431
433
450
448
448
451
482
520
537
532
522
512
528
534
526
518
506
504
529
526
522
508
507
520
513
523
539
527
510
500
512
525
536
533
543
547
573
586
587
566
559
571
581
567
568
586
584
563
553
565
590
601
589
611
647
617
593
587
594
600
606
619
622
603
596
589
549
521
540
559
530
511
463
465
490
474
413
405
437
463
447
411
410
450
474
447
391
376
404
416
407
423
447
463
454
487
480
460
424
425
440
446
435
416
441
428
426
431
447
467
477
456
439
458
480
463
434
413
404
443
446
435
465
463
466
503
548
573
568
538
496
481
498
481
477
478
483
505
532
524
511
500
450
430
466
458
429
471
505
505
474
453
452
463
489
511
489
451
437
456
495
517
513
517
525
545
573
540
467
432
423
488
499
477
425
385
402
445
464
454
428
427
447
489
536
536
515
469
451
470
501
530
521
507
499
550
540
532
522
504
531
507
444
444
489
527
542
542
511
444
455
471
482
527
532
496
493
522
543
511
488
479
470
469
508
539
545
558
534
521
507
523
571
598
562
544
559
538
514
529
548
562
583
585
542
496
526
547
550
561
578
588
578
584
627
628
588
592
584
568
554
548
568
598
620
621
582
534
492
468
472
482
508
552
537
533
539
517
501
479
472
510
550
547
510
492
505
553
622
688
771
828
861
880
891
899
892
827
744
677
617
546
511
492
467
457
474
467
418
393
415
454
458
448
442
458
465
442
429
430
421
442
446
448
446
428
429
456
470
477
477
480
475
462
440
431
412
427
453
468
472
463
455
456
457
456
485
487
495
507
510
481
482
487
478
485
510
520
519
505
524
523
525
537
531
514
523
518
501
545
545
519
501
500
520
541
550
537
543
530
524
508
534
574
616
621
600
582
573
578
581
589
597
580
572
588
611
633
622
599
582
564
559
554
552
534
534
554
570
547
484
449
427
407
426
454
460
476
482
450
393
392
411
441
460
450
439
422
435
452
453
433
412
436
453
469
467
465
466
458
458
443
436
452
475
494
507
503
512
494
440
403
408
488
571
581
534
489
440
433
485
455
425
463
481
484
507
514
510
503
500
505
500
510
494
521
514
518
516
524
547
564
531
470
452
451
467
485
515
530
517
538
532
522
491
465
467
470
461
496
498
507
493
469
487
527
542
552
576
551
517
493
485
454
462
466
470
505
524
533
557
569
541
526
541
527
515
553
532
479
470
450
480
509
516
498
507
533
530
520
509
502
505
530
523
470
487
507
527
525
548
558
552
550
542
546
552
547
532
511
513
536
541
599
588
559
516
490
495
517
492
489
508
535
546
542
520
502
494
508
512
502
508
498
486
478
477
494
516
541
517
478
485
514
522
511
501
495
494
508
549
544
545
634
720
774
780
780
810
845
871
839
794
745
708
640
574
511
447
407
385
419
455
445
413
412
423
425
438
437
455
432
444
467
474
472
444
443
449
435
416
434
455
436
422
464
490
476
440
433
437
459
482
508
507
485
472
455
478
486
478
496
510
516
530
508
495
519
536
523
490
491
527
553
523
480
482
549
571
564
546
526
523
524
510
517
545
563
559
545
545
562
568
559
556
577
584
560
557
573
588
584
582
587
581
566
576
571
579
585
554
582
629
635
576
517
535
508
471
457
475
493
501
495
513
517
490
471
470
458
427
422
431
444
431
406
412
427
448
464
464
458
446
421
415
438
457
431
385
415
448
451
462
464
465
455
462
460
453
467
462
446
449
470
464
458
468
469
484
492
511
493
458
471
486
493
491
519
544
517
499
485
487
496
489
489
491
494
503
497
523
510
488
473
462
461
478
494
530
545
540
509
480
464
477
501
518
526
517
518
501
487
480
485
485
483
480
519
529
503
488
491
506
512
510
493
496
504
514
512
495
460
457
456
479
501
524
545
565
542
517
515
505
507
541
540
535
519
476
458
478
493
500
512
540
537
525
505
486
469
489
499
491
498
508
525
532
503
500
501
512
517
525
546
534
548
546
518
480
509
513
504
533
526
505
483
473
496
491
475
479
505
533
549
548
551
535
518
543
567
571
559
524
480
448
471
498
528
542
558
560
541
544
553
550
522
521
522
505
506
519
524
518
513
528
533
547
583
590
552
517
482
473
473
461
466
500
508
519
546
528
494
488
493
501
490
505
525
515
510
512
514
488
485
493
497
525
621
665
693
723
773
824
841
845
854
870
842
776
701
614
538
464
439
434
436
434
444
448
412
403
401
404
433
462
439
422
433
425
407
409
443
464
471
449
426
423
423
418
444
478
477
484
488
499
492
492
482
482
492
493
470
446
456
493
495
477
482
478
478
498
499
471
444
447
461
500
559
551
517
497
482
480
505
524
509
503
531
558
559
541
518
504
465
452
501
560
590
590
596
581
574
579
589
569
550
533
538
565
582
586
587
600
625
596
559
551
550
525
534
547
538
539
544
532
523
520
487
460
435
452
479
488
505
504
462
424
397
410
431
419
392
376
385
408
435
420
406
415
408
405
417
430
423
439
469
467
450
423
405
414
446
483
493
463
464
471
477
470
463
444
450
451
451
459
471
482
494
493
483
485
488
471
487
523
531
524
524
494
467
444
454
464
462
485
502
510
524
515
490
463
488
510
515
484
467
491
515
543
548
529
505
481
451
438
463
493
505
484
505
520
517
496
479
484
507
504
498
481
494
522
518
499
477
484
494
510
532
517
484
498
524
510
507
519
504
512
546
567
576
553
491
448
440
471
485
489
495
508
532
527
510
496
493
499
518
539
528
544
568
567
542
525
550
551
526
491
487
490
521
506
530
529
536
531
512
487
500
490
497
523
550
556
523
486
496
534
558
555
518
521
536
526
522
518
508
513
510
524
534
556
548
519
509
504
518
520
501
496
532
544
520
521
536
561
552
525
515
503
497
526
548
546
495
467
486
528
537
525
513
499
523
521
483
520
524
524
522
526
559
545
529
556
582
587
570
563
558
542
543
500
499
505
507
531
527
526
520
526
518
506
522
530
556
573
565
583
591
575
556
547
545
547
529
546
572
589
577
541
535
556
553
543
545
526
512
537
548
560
563
539
512
491
509
518
495
496
522
513
514
517
517
525
537
518
512
514
506
475
485
516
573
629
705
773
838
876
951
1002
1023
1023
1002
942
859
772
651
542
462
413
402
425
434
450
461
420
414
395
371
354
364
383
396
399
394
409
393
383
408
413
400
394
413
433
450
449
430
417
418
423
426
419
407
425
453
490
504
501
488
458
442
431
438
464
488
488
478
470
472
485
503
484
478
479
482
496
499
512
530
541
554
572
553
523
515
519
514
476
459
491
516
534
549
549
546
556
553
547
568
593
618
612
595
596
604
602
593
589
584
586
582
604
594
579
573
576
598
574
562
557
546
523
519
508
517
499
470
456
472
469
454
433
424
444
433
407
410
384
387
396
399
405
395
371
377
397
395
401
403
422
411
414
445
484
465
432
444
429
414
414
420
404
435
443
430
419
401
400
434
472
496
494
507
508
505
504
503
501
479
454
432
449
478
492
515
516
494
501
508
527
517
481
476
485
499
489
491
477
484
481
504
516
502
496
476
461
472
489
502
500
500
500
504
510
502
496
492
488
494
486
469
481
494
511
503
497
541
541
522
536
554
541
534
518
476
470
485
490
498
509
492
510
522
490
503
515
506
491
481
493
517
521
529
529
547
535
540
525
523
518
489
483
495
524
541
522
506
505
526
543
530
527
519
512
515
521
518
516
481
487
525
513
466
461
481
495
502
497
487
476
460
468
481
525
583
573
551
534
489
484
494
526
529
515
524
534
538
524
494
485
494
501
504
505
512
514
507
513
504
515
530
507
486
490
477
481
503
518
526
548
529
509
526
545
549
546
539
542
530
525
523
524
544
552
560
550
542
534
529
534
503
494
504
505
525
537
537
508
484
491
485
465
478
499
509
471
458
483
500
510
515
527
520
493
495
492
484
489
491
516
553
589
663
738
817
877
910
934
956
955
922
875
809
706
603
510
467
471
454
450
444
420
405
400
400
411
422
402
412
422
407
402
384
388
403
416
430
456
470
446
429
432
432
442
428
427
447
446
447
440
448
453
442
446
458
478
489
472
495
531
540
512
496
496
488
488
490
484
494
505
479
466
499
522
536
542
533
516
505
506
513
524
535
539
543
546
542
534
537
540
539
555
579
584
591
597
597
614
616
610
607
614
601
586
571
563
560
590
591
594
591
578
579
567
545
543
556
566
558
549
561
549
516
478
465
439
440
437
435
427
401
417
433
438
416
412
409
421
422
415
433
460
447
430
411
397
393
406
407
419
441
425
425
455
470
465
445
447
473
460
445
486
492
470
481
498
486
472
461
462
474
478
500
516
511
484
474
485
499
489
483
484
486
484
501
509
524
546
556
502
481
493
490
486
487
483
479
470
473
500
534
534
502
483
493
531
529
523
524
523
534
525
530
515
518
534
530
519
503
491
482
486
484
501
533
548
517
515
511
491
477
496
523
529
529
509
509
547
579
579
534
499
483
498
502
477
480
517
535
535
556
566
518
500
536
556
543
529
517
521
511
518
516
506
513
528
538
538
507
506
525
544
558
574
578
571
566
553
540
540
557
550
554
530
507
518
546
561
569
531
495
497
521
526
532
536
559
534
477
484
512
523
528
531
527
522
527
520
488
491
504
501
492
478
474
488
499
516
552
587
629
699
778
838
877
907
943
949
885
790
736
705
659
576
517
485
468
467
457
456
415
386
366
369
374
403
425
427
435
442
453
469
446
433
427
436
452
452
453
425
422
445
458
466
472
469
448
440
431
452
502
528
488
479
472
472
469
482
485
494
506
492
464
465
469
477
492
485
502
548
571
584
560
483
444
417
432
491
517
567
575
539
520
528
557
560
568
569
559
572
594
605
587
566
571
580
587
582
603
619
568
549
550
553
580
590
596
596
604
572
520
507
520
546
564
566
552
554
538
533
553
542
522
514
462
414
407
421
402
378
416
428
439
433
417
418
421
422
417
417
417
423
424
402
381
384
419
451
463
471
452
436
451
455
463
466
481
498
479
450
463
477
462
430
418
441
441
444
472
490
487
464
472
500
489
456
480
479
479
452
461
485
482
500
523
545
562
528
502
492
484
480
481
506
533
519
494
493
498
488
508
532
507
487
472
478
500
476
459
473
490
500
509
476
476
527
540
508
514
505
518
529
536
537
517
504
525
548
541
531
506
495
492
494
479
454
461
477
496
497
506
531
514
516
502
484
492
520
552
545
524
493
489
512
531
526
546
535
515
516
529
516
489
500
511
518
527
522
518
520
543
558
557
542
545
545
552
556
550
549
546
548
541
531
526
537
505
487
464
479
508
523
534
530
538
541
532
506
510
524
542
531
525
527
515
490
492
483
470
484
470
508
553
576
622
664
744
815
856
894
949
983
971
935
894
852
731
601
505
437
403
414
416
402
399
391
386
389
404
405
397
390
370
369
388
391
386
380
388
404
418
442
464
462
428
422
415
416
427
420
427
465
486
473
456
453
445
432
427
427
444
476
524
510
478
467
450
448
486
533
539
522
491
475
468
498
496
530
563
560
539
506
476
478
467
454
469
503
554
585
578
549
533
534
544
574
591
597
593
582
553
537
545
572
552
552
587
593
601
551
536
551
580
575
564
555
545
535
515
519
539
549
547
537
521
491
468
466
484
461
478
458
427
408
411
415
414
421
429
445
416
400
378
382
405
423
429
447
444
433
440
471
465
417
409
444
477
498
496
494
502
508
507
474
452
456
479
493
489
491
494
496
494
492
501
526
547
579
572
558
533
522
513
502
506
504
513
524
507
494
513
518
510
508
496
500
509
502
513
527
519
498
475
478
500
519
524
526
513
508
511
485
491
495
489
495
498
498
508
528
536
517
490
483
498
499
508
522
512
525
518
509
505
511
509
537
528
509
506
513
519
501
494
509
502
494
488
497
512
525
528
546
534
500
491
491
483
472
468
457
463
459
457
524
539
550
540
482
445
440
448
451
453
487
495
478
471
467
465
494
494
475
463
464
460
484
513
511
502
497
493
473
472
472
469
448
429
453
470
468
476
497
491
505
508
497
500
480
469
460
471
501
509
500
490
490
482
470
462
463
463
494
516
516
511
499
477
492
508
500
492
485
467
480
497
505
532
599
683
754
823
876
919
968
998
994
955
873
771
690
643
576
497
448
464
470
452
447
447
444
437
444
429
428
456
459
421
389
371
398
418
406
397
399
399
400
425
424
408
392
380
400
410
416
429
472
483
487
496
488
476
458
434
467
500
483
474
459
453
459
472
501
493
492
507
524
539
543
581
596
551
498
480
479
483
503
521
531
547
580
562
507
499
515
537
576
583
559
538
551
608
648
655
618
578
600
623
628
619
601
593
618
623
636
625
624
645
634
598
551
514
518
550
569
561
553
537
524
520
539
521
474
447
457
473
490
466
442
458
483
461
437
413
392
401
428
461
493
516
502
498
480
440
429
457
479
484
504
516
494
464
429
426
459
499
534
559
534
483
466
463
466
491
520
508
461
480
508
513
489
488
493
491
506
498
495
508
523
533
522
482
501
499
476
489
501
507
504
488
484
510
483
427
471
468
509
537
537
537
508
494
507
504
499
519
550
522
490
481
461
455
492
517
535
590
597
555
489
465
446
443
464
474
496
523
526
534
555
562
547
533
520
497
486
503
511
508
502
506
505
503
519
546
531
500
509
511
521
534
548
604
602
546
502
501
532
527
504
451
434
458
469
444
490
529
487
473
481
516
524
551
563
568
534
503
522
524
494
471
455
489
535
559
561
531
523
491
477
480
479
464
454
450
429
435
434
467
515
491
477
472
439
446
507
521
509
482
455
432
435
462
508
488
463
457
499
557
537
500
478
457
475
473
467
459
460
489
520
545
541
534
528
521
506
508
497
501
518
536
562
564
571
581
573
542
523
532
543
531
492
478
498
526
510
528
553
549
552
537
500
493
515
542
533
522
537
530
517
496
507
527
519
529
535
554
595
625
674
747
824
868
906
953
998
1023
1023
1023
913
776
684
588
508
484
494
525
522
484
458
413
419
444
457
433
402
397
404
433
461
458
447
445
457
477
465
465
499
514
485
446
447
458
449
428
439
463
487
487
452
456
485
515
535
527
502
503
522
532
505
475
473
482
497
501
504
510
533
527
543
525
504
489
495
535
558
533
580
630
603
554
532
534
533
540
565
591
576
574
578
567
586
606
621
602
579
607
626
629
608
581
593
604
590
611
643
640
612
586
584
588
593
599
583
557
535
549
573
559
548
540
525
506
478
462
468
475
441
401
414
411
400
412
431
438
418
410
431
447
446
437
394
362
391
385
394
438
432
410
414
453
512
496
469
476
493
500
468
459
462
446
453
480
478
477
471
458
478
475
471
474
477
505
505
485
456
442
469
503
533
532
485
510
551
500
545
554
505
470
462
480
493
516
520
518
524
515
479
494
497
492
504
519
530
513
488
488
496
508
482
501
497
506
553
525
512
509
504
495
515
529
521
510
482
455
474
515
488
443
457
459
490
499
500
500
522
540
513
507
499
494
483
481
499
511
504
515
510
488
486
480
499
555
597
563
505
469
448
450
473
497
515
524
533
546
547
542
525
482
473
510
527
512
499
511
543
562
552
541
519
513
499
489
465
468
483
529
553
532
523
504
503
514
509
512
527
534
520
529
523
491
507
519
517
505
505
514
528
529
501
472
488
500
492
490
508
520
535
534
524
513
488
493
504
509
530
527
495
461
482
530
563
559
515
468
486
501
511
510
508
489
478
463
472
494
506
519
548
562
555
559
574
596
582
519
491
501
479
478
515
535
541
533
524
522
525
529
518
500
494
502
512
504
492
500
501
516
524
502
495
479
478
481
513
513
501
483
492
494
494
500
501
482
496
509
552
608
659
715
783
857
924
986
1023
1018
966
861
762
692
611
526
461
448
449
441
426
381
370
363
371
388
388
386
377
396
428
420
419
429
415
397
414
469
493
492
467
428
423
440
451
461
471
462
474
451
425
432
442
457
492
473
454
462
532
579
537
480
475
449
416
428
450
460
470
506
537
516
475
475
519
558
565
525
527
527
532
551
545
512
484
524
561
553
577
577
513
540
605
585
551
550
581
583
587
600
601
616
600
582
581
594
616
613
610
580
587
610
617
596
585
568
527
503
491
498
520
543
547
527
496
442
412
420
429
434
445
452
441
445
443
428
404
412
443
441
405
385
416
423
401
417
437
435
435
457
462
494
481
448
435
415
399
407
421
449
469
467
480
463
432
440
456
465
447
455
475
489
494
468
469
478
468
463
476
492
502
518
512
495
459
475
503
504
490
457
411
440
482
483
488
503
493
512
505
491
484
507
508
476
473
500
503
485
485
479
462
473
503
512
496
483
481
505
518
515
495
506
549
526
494
488
458
433
423
461
480
498
479
490
527
548
538
504
492
494
512
523
544
542
548
535
531
499
479
486
505
499
484
486
493
452
462
503
542
559
530
496
483
481
474
502
538
564
571
552
527
518
505
498
492
498
509
502
499
475
485
484
473
505
533
546
582
560
519
498
474
458
457
460
484
496
514
526
542
559
545
517
505
498
502
489
483
523
549
532
511
552
539
488
469
474
500
523
522
529
517
510
510
489
485
502
539
541
545
542
528
515
533
548
555
550
532
515
510
542
542
532
560
585
602
587
564
525
502
482
488
491
489
478
490
524
506
468
452
454
465
510
555
554
528
488
474
472
479
480
495
517
508
485
460
471
475
490
530
579
591
667
784
848
883
930
964
992
1005
968
896
803
714
611
508
454
463
457
434
412
405
394
382
384
383
382
366
391
441
451
427
390
368
403
427
395
396
403
407
425
416
425
438
430
433
443
443
443
438
445
460
476
469
478
465
455
477
466
450
465
480
487
497
507
501
486
458
464
468
477
506
526
512
520
507
481
510
548
552
565
563
551
534
503
495
519
547
551
542
525
524
555
569
581
593
590
604
624
628
630
631
616
590
572
606
611
594
593
608
598
578
586
583
598
570
539
530
526
514
511
494
486
503
522
515
480
456
478
488
445
425
414
402
382
362
344
349
381
404
426
418
426
436
447
417
392
405
420
422
402
412
447
467
459
455
446
417
393
399
441
475
475
463
456
445
454
475
476
503
522
483
447
434
445
472
482
481
484
500
510
509
500
469
453
467
479
485
482
468
460
488
484
484
481
494
505
525
507
498
478
483
516
549
549
536
514
502
469
450
469
490
498
509
494
465
475
520
519
475
471
473
482
500
515
526
502
517
520
521
510
499
503
518
502
487
488
490
500
476
477
492
497
491
487
509
531
533
547
565
544
534
526
495
475
462
463
483
517
539
536
526
548
558
526
477
477
473
532
532
504
491
493
519
516
508
504
481
477
503
519
516
525
515
510
506
487
494
513
512
486
507
530
537
528
525
520
517
494
481
489
501
523
560
548
500
492
477
489
489
481
498
498
516
499
484
483
494
517
541
546
557
555
514
499
525
526
510
478
497
503
514
541
566
554
547
555
545
544
548
544
521
512
509
508
505
479
479
505
527
507
466
482
510
529
527
509
516
516
509
504
470
466
480
494
536
527
506
475
441
463
518
539
530
561
623
704
772
858
912
945
969
963
901
826
764
699
604
507
437
444
459
458
445
424
424
432
419
410
424
448
471
422
381
381
411
443
423
418
417
412
442
435
414
431
449
469
450
436
458
465
444
447
461
481
507
507
526
566
543
485
460
469
477
462
444
461
483
504
515
505
500
495
527
542
552
561
553
523
496
505
500
505
538
552
560
566
583
585
588
585
564
524
529
556
536
553
570
566
570
592
594
607
605
612
616
603
585
574
572
591
602
616
635
628
617
592
555
542
530
532
559
584
574
541
513
496
500
517
455
425
445
449
422
393
388
376
398
419
397
415
429
441
468
452
424
412
415
412
415
422
425
443
473
494
485
448
438
438
431
412
433
460
477
484
457
450
460
446
438
421
424
423
451
505
532
529
499
481
471
457
470
487
494
516
513
528
525
497
477
471
469
473
523
557
547
522
474
453
457
455
484
527
536
526
505
538
567
514
461
457
462
462
481
500
513
517
526
528
509
509
515
505
487
501
508
496
483
502
527
540
540
544
526
497
479
473
483
476
488
514
517
513
490
485
510
519
527
540
523
526
567
550
545
526
507
489
518
517
494
476
440
484
534
532
548
544
506
501
499
498
491
491
490
521
523
520
496
512
523
518
510
510
510
512
491
522
533
553
553
548
547
534
535
520
489
494
504
530
516
490
497
545
522
504
523
495
486
505
530
543
539
533
520
523
550
560
553
549
544
538
580
588
596
588
528
502
487
499
533
527
495
467
466
467
483
483
479
491
492
509
515
506
493
462
476
512
535
514
501
496
474
460
435
450
529
586
638
699
772
836
898
933
955
964
950
963
907
794
711
608
524
480
471
456
439
418
412
399
397
400
401
413
421
436
419
416
417
428
411
400
407
405
398
425
466
460
423
436
482
490
479
450
434
485
491
493
509
498
470
448
445
515
520
507
522
536
519
484
460
476
488
472
485
503
515
542
553
565
558
507
498
499
523
503
470
476
486
511
553
577
573
562
554
564
570
581
601
612
614
621
617
592
568
545
602
682
689
648
625
619
590
573
609
649
644
600
586
605
581
588
582
574
532
508
504
499
497
488
483
485
464
448
456
466
470
456
438
421
417
439
452
457
440
402
380
395
430
447
427
414
428
431
412
388
397
417
412
447
469
444
424
436
470
478
465
448
423
427
438
459
498
503
518
485
425
396
402
423
436
465
479
490
503
504
510
516
487
475
471
472
497
509
486
471
469
487
512
489
461
467
474
472
472
488
495
517
517
504
483
483
487
487
491
481
461
441
461
504
539
517
514
505
516
507
480
469
484
467
449
484
497
529
530
496
456
477
500
503
514
505
483
481
487
496
492
488
482
513
518
539
550
516
492
477
479
479
476
460
489
499
509
526
527
512
513
514
510
513
463
452
481
507
522
538
523
518
506
494
499
497
484
516
513
518
527
522
511
504
505
484
472
472
505
525
511
505
504
506
509
512
512
539
556
580
533
495
492
512
528
520
477
470
475
496
500
478
487
514
510
542
548
531
545
572
560
531
524
544
536
534
555
558
535
511
505
510
536
554
543
554
575
583
572
563
579
615
546
486
495
501
505
499
493
490
488
487
501
521
524
532
536
513
491
501
502
490
479
460
500
520
539
532
492
495
497
498
500
506
575
668
787
878
916
928
991
1023
1023
1023
953
851
764
691
610
534
469
421
398
401
411
401
403
397
372
384
379
367
380
392
386
389
397
394
384
371
394
446
476
446
442
466
411
365
359
389
417
441
429
434
456
452
457
462
457
473
504
511
475
473
450
426
424
433
461
483
476
491
464
456
512
532
525
526
530
532
532
547
524
507
521
527
521
519
566
578
583
609
618
575
573
575
561
564
587
547
529
553
577
586
574
584
597
612
633
604
580
576
589
605
627
620
599
573
553
541
542
551
562
562
564
565
533
492
470
463
459
461
479
443
412
424
429
398
349
353
389
412
423
424
419
420
440
449
456
427
396
389
407
422
432
420
417
427
431
432
451
446
435
433
427
421
439
460
481
494
467
461
448
440
468
452
442
475
482
489
482
497
497
487
486
491
499
481
478
493
509
490
497
490
495
460
450
483
491
474
460
468
478
483
490
473
505
481
466
477
481
487
494
510
524
523
498
470
460
483
515
538
548
540
533
495
478
468
465
442
460
505
513
522
516
511
507
520
505
491
484
497
526
528
497
485
480
481
507
495
469
475
493
503
510
515
504
509
501
503
501
492
493
504
522
524
534
558
548
528
520
508
507
506
521
543
570
534
506
508
513
521
526
550
552
529
518
488
496
507
510
494
492
501
483
497
517
525
506
480
470
495
509
509
507
506
510
514
517
529
540
536
540
553
578
587
571
565
565
585
580
593
572
558
532
524
517
495
492
482
471
490
494
513
524
526
524
520
494
475
463
414
451
535
550
519
484
486
475
471
496
544
582
553
525
534
556
583
662
790
891
964
1014
1023
1023
1023
1023
978
887
794
718
579
463
397
373
383
419
456
470
449
428
387
338
345
380
396
401
401
389
405
411
401
391
380
397
416
427
418
421
428
430
404
384
388
402
418
448
466
454
437
440
462
481
466
462
470
472
475
485
503
501
491
459
429
460
472
474
457
467
492
516
516
514
534
557
545
538
546
541
543
538
542
601
616
571
565
569
592
604
596
579
558
556
582
600
590
589
602
610
630
640
649
