541
541
540
538
539
541
543
547
549
547
545
543
542
11
507
507
509
511
512
512
511
510
508
508
509
510
513
515
515
512
509
507
509
511
511
511
511
509
507
506
507
510
512
512
510
508
506
507
509
511
512
513
514
511
507
506
508
509
511
512
512
510
508
506
506
507
510
511
511
510
508
507
507
509
513
514
514
512
508
506
507
510
512
512
510
508
506
506
505
506
508
508
508
507
505
505
506
508
510
512
511
508
505
504
505
507
509
510
508
506
503
503
504
506
509
511
511
511
509
508
510
512
513
512
511
507
504
502
503
505
508
509
508
507
507
508
509
511
513
514
514
512
510
510
509
511
513
513
512
512
510
511
512
514
517
516
514
511
508
508
508
509
512
512
511
509
507
508
510
513
516
516
515
512
509
509
509
509
512
512
512
510
510
509
509
510
512
513
514
514
512
512
512
514
516
516
514
511
509
508
509
510
512
514
513
511
510
508
507
508
511
513
515
515
514
513
513
515
517
517
518
516
513
511
511
514
516
518
517
514
511
510
512
514
516
516
515
513
510
508
509
510
512
513
513
511
509
508
508
510
513
514
512
508
504
500
499
500
501
500
499
497
497
497
497
498
499
497
495
493
491
489
490
491
491
489
488
485
482
482
482
485
488
490
489
486
484
485
487
489
492
494
496
497
496
496
499
504
509
513
514
514
514
515
517
521
524
525
525
525
524
525
526
527
529
531
532
533
531
530
530
529
530
533
535
537
536
536
535
537
539
540
540
540
539
540
541
543
546
550
553
553
553
555
554
557
563
570
573
574
574
576
580
585
591
595
598
601
602
603
606
610
615
619
622
622
624
625
628
631
634
637
642
646
649
648
645
645
647
651
655
658
658
656
654
654
656
660
664
669
669
665
662
659
661
666
671
674
673
669
664
661
663
668
676
680
680
675
668
662
660
663
669
671
668
659
647
638
635
638
641
643
638
628
615
604
599
601
608
617
620
614
606
598
599
606
618
630
635
631
623
617
617
626
638
646
644
630
610
591
578
575
576
576
567
545
516
485
464
455
454
452
442
422
397
375
364
367
379
390
392
380
361
343
337
345
363
381
389
383
368
354
350
361
382
402
413
409
394
378
374
387
410
434
447
443
427
411
407
423
452
482
500
500
484
466
461
478
514
551
573
571
549
525
515
532
573
619
648
645
615
579
646
1008
1023
1023
1023
1023
1023
1023
1023
1023
1023
1023
1023
1023
1023
1023
1023
1023
1023
1023
1023
1023
1023
1023
1023
1023
1023
1023
1023
1023
1023
1023
942
489
256
137
74
41
23
13
8
5
4
2
2
2
1
1
1
1
1
1
1
1
1
1
1
1
1
1
1
1
1
2
573
1023
1023
1023
1023
1023
1023
1023
1023
1023
1023
1023
1023
1023
1023
1023
1023
1023
1023
1023
1023
1023
1023
1023
1023
1023
1023
1023
1023
1023
1023
1023
1023
1023
1023
1023
1023
1023
1023
1023
1023
1023
1023
1023
1023
1023
1023
1023
1023
1023
1023
1023
1023
1023
1023
1023
1023
1023
1023
1023
1023
1023
1023
1023
1023
1023
1023
1023
1023
1023
1023
1023
1023
1023
1023
1023
1023
1023
1023
1023
1023
1023
1023
1023
1023
1023
1023
1023
1023
1023
1023
1023
1023
1023
1023
1023
1023
1023
1023
1023
1023
1023
1023
1023
1023
1023
1023
1023
1023
1023
1023
1023
1023
1023
1023
1023
1023
1023
1023
1023
1023
1023
1023
1023
1023
1023
1023
1023
1023
1023
1023
1023
1023
1023
1023
1023
1023
1023
1023
1023
1023
1023
1023
1023
1023
1023
1023
1023
1023
1023
1023
1023
1023
1023
1023
1023
1023
1023
1023
1023
1023
1023
1023
1023
1023
1023
1022
989
969
959
953
955
971
973
980
950
927
936
935
931
888
866
874
880
867
875
877
885
895
885
851
824
817
819
824
846
874
878
844
837
800
741
692
700
718
726
744
789
805
791
782
782
774
729
670
680
709
750
733
709
702
703
709
701
688
676
664
637
630
605
612
663
671
618
594
622
630
639
644
644
641
657
675
682
673
617
577
579
575
595
606
616
625
593
573
569
540
509
475
458
458
465
466
470
494
482
478
495
520
529
517
466
432
422
448
463
459
434
419
422
481
546
559
594
697
768
825
853
796
717
643
557
476
378
308
273
231
178
183
249
304
312
330
334
292
276
278
270
263
274
283
258
260
276
235
184
218
309
337
282
228
226
258
279
296
290
272
277
283
285
248
227
262
288
298
324
305
278
271
256
267
250
221
245
305
323
304
331
356
337
331
306
275
280
284
301
316
303
278
296
328
350
352
346
345
350
339
348
355
344
300
305
346
374
369
376
436
442
421
385
387
383
358
344
366
363
356
356
342
324
348
388
394
384
381
395
388
337
323
302
244
233
223
235
275
288
285
285
253
204
175
203
212
202
187
165
146
153
152
158
160
158
139
117
130
161
198
221
197
149
116
140
138
137
126
114
132
145
114
67
80
124
146
162
167
165
151
146
155
166
178
222
237
235
228
241
235
206
203
219
193
172
166
169
212
246
239
227
191
198
211
209
212
206
222
223
204
227
234
247
236
215
229
229
232
198
173
172
182
165
168
202
208
231
280
283
263
254
222
170
146
156
158
167
190
206
193
162
170
229
251
211
201
205
194
169
150
143
162
196
220
226
237
201
196
188
169
161
127
106
125
157
180
175
200
212
196
156
157
190
209
224
226
208
193
197
200
226
222
213
208
197
224
209
181
170
186
202
225
234
211
182
182
178
185
183
202
229
230
222
209
222
228
236
250
240
211
208
224
242
257
250
230
250
232
221
226
225
226
201
194
213
207
207
235
261
279
292
290
286
264
253
251
241
229
215
238
283
276
241
241
261
241
235
260
241
245
277
321
331
282
239
266
282
281
301
299
292
308
318
335
366
362
350
327
321
330
306
282
288
323
348
378
363
336
311
303
315
320
355
399
402
343
279
289
313
319
303
310
301
300
307
311
317
318
329
336
321
314
308
289
256
237
268
264
240
272
303
310
339
336
311
260
221
216
227
219
247
320
383
432
485
562
643
691
704
682
620
537
442
372
274
201
188
188
162
139
171
162
142
167
194
211
198
177
140
131
153
167
181
199
189
190
168
189
220
229
209
181
151
142
189
235
260
260
240
168
102
144
222
214
196
186
192
199
209
218
202
212
201
197
221
243
223
185
167
167
189
218
254
275
248
201
173
184
220
234
240
217
202
205
216
234
228
221
217
227
249
258
229
207
223
266
262
270
280
279
270
267
266
274
281
280
284
279
267
260
265
278
278
257
232
202
205
243
284
281
271
252
222
171
166
192
197
185
197
183
128
87
100
129
105
84
72
91
146
186
155
92
73
64
58
45
46
55
65
89
106
103
115
97
86
86
109
126
101
88
87
98
95
103
152
179
183
169
126
95
112
142
151
149
164
173
196
199
163
150
212
227
169
132
128
146
207
242
246
212
190
201
209
190
180
180
162
178
228
237
238
235
247
248
256
254
238
227
226
228
222
225
242
232
221
228
223
228
245
237
208
207
248
264
244
230
243
248
241
240
228
266
305
275
259
247
243
232
219
221
234
249
257
239
274
299
295
271
257
256
233
221
247
275
282
278
262
280
301
289
299
293
259
242
223
221
236
267
300
290
265
281
303
305
286
257
237
244
261
290
316
316
287
277
280
268
263
289
288
295
313
313
277
228
198
211
254
302
312
296
307
313
321
296
269
246
259
284
274
261
246
251
260
287
287
265
242
228
247
269
304
316
305
254
246
258
250
242
264
295
305
282
282
326
326
288
279
256
234
213
241
272
285
317
335
354
365
355
317
273
233
203
220
276
317
349
391
385
356
337
326
319
333
330
315
319
314
316
341
366
396
392
328
256
254
272
281
283
248
212
230
255
283
321
343
345
344
345
337
327
319
335
360
386
433
506
587
650
720
774
784
724
619
495
381
301
225
192
188
172
150
169
219
251
271
291
277
245
216
234
284
316
325
317
290
287
292
295
304
336
344
338
344
350
358
349
344
349
363
364
349
343
323
298
321
347
368
360
351
340
332
354
421
433
396
352
292
274
293
335
340
341
332
371
413
409
416
422
413
420
408
388
373
384
419
433
449
431
416
422
433
435
433
424
403
393
411
406
409
431
437
463
478
455
426
424
416
417
398
442
498
525
510
481
455
426
429
448
446
441
461
465
423
397
383
395
381
351
332
345
351
346
320
313
334
383
366
331
304
291
305
325
318
282
273
286
255
251
287
316
316
282
254
238
249
279
294
296
291
323
336
336
319
315
308
306
304
298
311
295
307
323
335
343
339
349
354
344
288
289
329
331
308
325
388
390
361
364
354
347
349
351
380
388
377
374
367
381
371
330
312
313
326
363
374
356
362
357
369
373
395
389
379
382
376
368
375
372
359
329
299
353
458
519
499
421
339
293
307
318
311
308
321
359
400
397
391
394
435
409
357
346
355
374
379
380
369
352
291
308
406
456
441
389
353
319
312
355
370
364
403
439
446
431
401
336
270
206
221
291
359
354
324
345
371
376
385
398
334
339
318
343
430
444
403
318
225
214
284
318
281
239
293
350
387
354
358
424
511
555
526
435
348
305
322
397
464
516
576
560
480
453
475
460
414
380
380
446
593
875
1023
1023
1023
1023
1023
1023
1023
1023
1023
1023
1023
1023
1023
1023
1023
1023
1023
1023
1023
1023
1023
1023
1023
1023
1023
1023
1023
1023
1023
1023
1023
1023
1023
1023
1023
1023
1023
1023
1023
1023
1023
1023
1023
1023
1023
1023
1023
1023
1023
1023
1023
1023
1023
1023
1023
1023
1023
1023
1023
1023
1023
1023
1023
1023
1023
1023
1023
1023
1023
1023
1023
1023
1023
1023
1023
1023
1023
1023
1023
1023
1023
1023
1023
1023
1023
1023
1023
1023
1023
1023
1023
1023
1023
1023
1023
1023
1023
1023
1023
1023
1017
820
962
1023
1023
1023
1022
543
285
152
115
365
636
621
338
174
91
50
28
37
197
195
97
50
26
14
8
5
3
2
2
2
1
1
1
1
1
1
1
1
1
1
1
1
1
1
1
1
1
1
1
1
1
1
1
1
1
1
1
1
1
1
1
1
1
1
1
1
1
1
0
1
1
1
1
1
1
1
1
1
1
0
1
1
1
1
1
1
1
1
1
1
1
1
0
1
1
1
1
1
1
0
1
1
1
1
1
1
1
1
0
1
1
1
1
1
1
1
1
1
1
1
1
1
1
1
1
1
1
1
1
1
1
1
1
1
1
1
0
1
1
1
1
0
1
1
0
1
1
1
1
1
1
1
1
1
1
1
1
0
1
1
0
1
1
1
0
1
1
1
1
1
1
1
1
1
1
1
1
1
0
1
0
1
1
1
0
0
0
1
1
1
1
1
0
0
1
0
1
1
1
1
1
1
1
1
1
1
0
0
1
1
1
1
1
1
1
1
0
1
1
0
1
1
1
0
1
1
1
1
1
0
1
1
1
1
1
0
1
1
0
1
1
1
1
1
