1
1023
1023
1023
519
272
143
75
438
1023
1023
1023
518
271
143
75
433
1023
1023
1023
519
271
143
76
431
1023
1023
1023
520
272
143
76
428
1023
1023
1023
521
272
143
76
424
1023
1023
1023
522
273
144
76
417
1023
1023
1023
524
274
144
76
415
1023
1023
1023
524
274
144
76
412
1023
1023
1023
525
274
144
76
414
1023
1023
1023
526
275
145
76
410
1023
1023
1023
526
275
145
77
406
1023
1023
1023
527
276
145
77
400
1023
1023
1023
528
276
145
77
398
1023
1023
1023
529
277
145
77
393
1023
1023
1023
530
277
146
77
390
1023
1023
1023
530
277
146
77
389
1023
1023
1023
531
278
146
77
386
1021
1023
1023
532
278
146
77
382
1019
1023
1023
533
279
146
77
378
1017
1023
1023
534
279
147
78
373
1014
1023
1023
535
280
147
78
370
1013
1023
1023
536
280
147
78
369
1012
1023
1023
536
280
147
78
365
1010
1023
1023
537
281
148
78
361
1008
1023
1023
538
281
148
78
358
1007
1023
1023
539
282
148
78
351
1004
1023
1023
540
282
148
78
350
1003
1023
1023
541
283
148
79
344
1000
1023
1023
542
283
149
79
339
997
1023
1023
543
284
149
79
336
996
1023
1023
544
284
149
79
332
994
1023
1023
545
285
150
79
331
993
1023
1023
546
285
150
79
329
992
1023
1023
548
286
150
79
330
993
1023
1023
549
287
151
79
328
992
1023
1023
550
287
151
80
327
992
1023
1023
551
288
151
80
328
992
1023
1023
551
288
151
80
327
991
1023
1023
553
289
152
80
328
992
1023
1023
553
289
152
80
331
993
1023
1023
555
289
152
80
332
994
1023
1023
555
290
152
80
334
995
1023
1023
556
290
152
80
335
995
1023
1023
557
291
153
81
334
995
1023
1023
558
291
153
81
334
995
1023
1023
559
292
153
81
332
994
1023
1023
560
292
153
81
331
993
1023
1023
560
292
154
81
327
992
1023
1023
561
293
154
81
324
990
1023
1023
562
294
154
81
320
988
1023
1023
564
294
155
82
317
986
1023
1023
564
295
155
82
316
986
1023
1023
564
295
155
82
317
986
1023
1023
566
295
155
82
318
987
1023
1023
567
296
155
82
319
987
1023
1023
567
296
156
82
317
986
1023
1023
568
297
156
82
319
988
1023
1023
570
297
156
82
325
990
1023
1023
570
298
156
82
333
994
1023
1023
572
298
157
83
336
996
1023
1023
572
299
157
83
341
998
1023
1023
573
299
157
83
346
1001
1023
1023
574
300
157
83
351
1004
1023
1023
575
300
158
83
357
1006
1023
1023
576
301
158
83
363
1010
1023
1023
577
301
158
83
368
1012
1023
1023
578
302
158
84
376
1016
1023
1023
580
303
159
84
386
1021
1023
1023
580
303
159
84
399
1023
1023
1023
580
303
159
84
405
1023
1023
1023
580
302
159
84
407
1023
1023
1023
580
302
159
84
408
1023
1023
1023
580
302
159
84
408
1023
1023
1023
580
303
159
84
409
1023
1023
1023
582
304
159
84
403
1023
1023
1023
581
303
159
84
396
1023
1023
1023
582
304
160
84
392
1023
1023
1023
583
304
160
84
391
1023
1023
1023
584
304
160
84
393
1023
1023
1023
584
305
160
85
390
1023
1023
1023
584
305
160
85
389
1023
1023
1023
585
305
160
85
384
1020
1023
1023
586
306
161
85
379
1018
1023
1023
586
306
161
85
375
1016
1023
1023
588
307
161
85
371
1014
1023
1023
588
307
161
85
369
1013
1023
1023
588
306
161
85
366
1011
1023
1023
588
307
161
85
364
1010
1023
1023
589
307
161
85
359
1007
1023
1023
590
307
161
85
357
1007
1023
1023
591
308
162
85
354
1005
1023
1023
592
309
162
86
349
1002
1023
1023
593
309
162
86
345
1001
1023
1023
593
309
162
86
344
1000
1023
1023
596
311
163
86
342
999
1023
1023
596
311
163
86
339
997
1023
1023
597
311
163
86
337
996
1023
1023
598
312
164
86
336
996
1023
1023
598
312
164
86
337
996
1023
1023
600
313
164
87
336
996
1023
1023
601
313
164
87
335
995
1023
1023
601
313
164
87
333
995
1023
1023
602
314
165
87
332
994
1023
1023
603
314
165
87
329
992
1023
1023
603
313
165
87
326
991
1023
1023
603
314
165
87
324
990
1023
1023
604
315
165
87
320
988
1023
1023
605
315
166
87
321
989
1023
1023
607
316
166
88
320
988
1023
1023
608
317
166
88
320
988
1023
1023
609
317
167
88
322
989
1023
1023
608
317
167
88
327
992
1023
1023
608
317
166
88
331
993
1023
1023
609
317
167
88
333
994
1023
1023
609
317
167
88
330
993
1023
1023
610
318
167
88
334
995
1023
1023
611
318
167
88
337
996
1023
1023
612
319
167
88
330
993
1023
1023
613
319
168
88
329
993
1023
1023
614
320
168
89
327
991
1023
1023
616
321
168
89
327
991
1023
1023
616
321
168
89
324
990
1023
1023
616
321
169
89
324
990
1023
1023
619
322
169
89
317
986
1023
1023
619
322
169
89
311
983
1023
1023
619
323
169
89
308
982
1023
1023
622
324
170
90
301
978
1023
1023
623
324
170
90
289
972
1023
1023
625
326
171
90
277
966
1023
1023
628
327
172
91
262
958
1023
1023
631
328
172
91
244
948
1023
1023
632
329
173
91
220
934
1023
1023
634
330
173
91
195
918
1023
1023
637
331
174
92
172
901
1023
1023
639
332
174
92
149
883
1023
1023
643
334
175
92
126
863
1023
1023
644
334
175
92
104
839
1023
1023
643
334
175
93
89
819
1023
1023
644
334
175
93
77
801
1023
1023
644
335
175
93
70
788
1023
1023
647
336
176
93
65
777
1023
1023
649
337
176
93
61
766
1023
1023
650
337
177
93
59
760
1023
1023
654
339
178
94
59
760
1023
1023
661
343
180
95
60
760
1023
1023
665
345
181
95
56
746
1023
1023
663
344
180
95
54
738
1023
1023
664
344
180
95
53
730
1023
1023
663
344
180
95
51
707
1023
1023
653
339
177
93
50
699
1023
1023
654
339
178
94
50
700
1023
1023
661
342
179
94
51
707
1023
1023
674
349
183
96
52
712
1023
1023
678
351
184
97
52
710
1023
1023
681
353
185
97
52
706
1023
1023
684
354
186
98
52
704
1023
1023
687
356
186
98
52
704
1023
1023
692
358
188
99
53
702
1023
1023
694
359
188
99
53
700
1023
1023
698
361
189
100
53
700
1023
1023
702
363
190
100
53
699
1023
1023
705
365
191
101
54
699
1023
1023
710
367
192
101
54
697
1023
1023
712
368
193
102
54
698
1023
1023
715
370
194
102
54
700
1023
1023
719
371
195
103
55
702
1023
1023
723
374
196
103
55
702
1023
1023
726
375
196
104
55
697
1023
1023
725
374
196
103
55
690
1023
1023
725
375
196
103
55
679
1023
1023
721
372
195
103
55
677
1023
1023
724
374
196
103
55
675
1023
1023
727
376
197
104
55
680
1023
1023
733
380
198
105
56
693
1023
1023
741
384
200
106
56
693
1023
1023
745
386
202
107
57
690
1023
1023
749
387
202
107
57
689
1023
1023
750
388
203
107
57
693
1023
1023
753
390
204
108
57
690
1023
1023
758
391
205
108
57
694
1023
1023
767
395
207
109
58
701
1023
1023
767
396
207
109
58
682
1023
1023
767
395
207
109
58
701
1023
1023
775
400
209
110
59
711
1023
1023
784
404
212
112
59
702
1023
1023
784
404
212
112
59
715
1023
1023
792
408
213
113
60
709
1023
1023
795
410
214
113
60
701
1023
1023
793
409
214
113
60
708
1023
1023
800
412
216
114
60
685
1023
1023
793
408
214
113
60
671
1023
1023
787
405
212
112
60
638
1023
1023
773
398
208
110
58
634
1023
1023
775
399
209
110
59
622
1023
1023
772
398
208
110
58
624
1023
1023
778
400
210
111
59
615
1023
1023
782
403
211
111
59
606
1023
1023
778
401
210
111
59
623
1023
1023
794
408
214
113
60
598
1023
1023
784
404
211
111
59
615
1023
1023
800
411
215
114
60
595
1023
1023
793
408
214
112
60
627
1023
1023
813
418
219
115
61
619
1023
1023
811
417
218
115
61
617
1023
1023
817
420
220
116
62
582
1023
1023
802
413
216
114
60
596
1023
1023
807
415
217
114
61
564
1023
1023
802
413
216
114
60
574
1023
1023
802
413
216
114
61
584
1023
1023
823
423
221
116
62
575
1023
1023
814
418
219
115
61
593
1023
1023
837
430
225
119
63
558
1023
1023
816
419
219
115
61
584
1023
1023
839
431
225
119
63
597
1023
1023
841
431
226
119
63
591
1023
1023
843
432
226
119
63
581
1023
1023
847
434
227
120
63
567
1023
1023
842
432
226
119
63
551
1023
1023
837
429
224
118
63
555
1023
1023
840
431
225
119
63
561
1023
1023
844
433
227
119
63
550
1023
1023
852
437
228
120
64
571
1023
1023
867
444
232
122
65
577
1023
1023
871
446
234
123
65
565
1023
1023
868
444
233
123
65
555
1023
1023
867
444
232
122
65
553
1023
1023
866
444
232
122
65
553
1023
1023
872
446
233
123
65
554
1023
1023
873
447
234
123
65
556
1023
1023
876
449
235
124
66
550
1023
1023
874
448
234
123
65
567
1023
1023
887
454
237
125
66
573
1023
1023
895
457
239
126
67
571
1023
1023
895
458
239
126
67
571
1023
1023
899
460
240
127
67
564
1023
1023
901
460
241
127
67
583
1023
1023
917
468
245
129
68
574
1023
1023
917
468
245
129
68
565
1023
1023
918
469
245
129
68
562
1023
1023
920
470
246
130
69
543
1023
1023
916
468
244
129
68
545
1023
1023
921
470
246
130
69
541
1023
1023
925
472
247
130
69
533
1023
1023
924
471
246
130
69
532
1023
1023
927
473
247
130
69
527
1023
1023
929
474
248
131
69
519
1023
1023
928
474
248
131
69
512
1023
1023
929
474
248
131
69
505
1023
1023
930
474
248
131
69
499
1023
1023
932
475
248
131
69
488
1023
1023
934
476
249
131
69
483
1023
1023
935
477
249
131
69
477
1023
1023
936
477
249
131
70
474
1023
1023
940
479
250
132
70
477
1023
1023
946
482
252
133
70
483
1023
1023
953
485
254
134
71
475
1023
1023
954
486
254
134
71
475
1023
1023
961
489
256
135
71
478
1023
1023
967
492
257
136
72
473
1023
1023
968
492
258
136
72
469
1023
1023
971
494
258
136
72
457
1023
1023
952
485
253
134
71
421
1023
1023
925
472
246
130
69
351
1004
1023
875
447
234
123
65
297
977
1023
863
440
230
121
64
287
972
1023
880
449
235
124
65
294
975
1023
912
464
243
128
68
324
991
1023
979
497
260
137
72
380
1019
1023
1023
546
285
150
79
433
1023
1023
1023
565
294
155
82
444
1023
1023
1023
568
296
156
82
453
1023
1023
1023
573
298
157
83
467
1023
1023
1023
576
300
158
83
448
1023
1023
1023
572
298
157
83
418
1023
1023
1023
567
295
156
82
397
1023
1023
1023
564
294
155
81
381
1020
1023
1023
563
293
155
81
373
1016
1023
1023
563
294
155
81
373
1016
1023
1023
566
295
155
82
387
1023
1023
1023
575
300
158
83
425
1023
1023
1023
588
306
161
85
457
1023
1023
1023
599
312
164
87
484
1023
1023
1023
607
316
166
88
485
1023
1023
1023
608
316
166
88
483
1023
1023
1023
610
317
167
88
491
1023
1023
1023
614
319
168
89
494
1023
1023
1023
616
320
169
89
493
1023
1023
1023
616
320
169
89
464
1023
1023
1023
610
317
167
88
419
1023
1023
1023
601
313
164
87
380
1019
1023
1023
593
308
162
85
351
1005
1023
1023
589
306
161
85
331
995
1023
1023
587
305
161
85
313
986
1023
1023
586
305
160
84
320
990
1023
1023
590
307
162
85
321
990
1023
1023
591
307
162
85
295
977
1023
1023
585
305
160
84
252
954
1023
1023
571
297
156
82
175
907
1023
984
499
260
137
72
68
800
1023
792
405
211
111
59
40
749
1023
716
367
191
100
53
36
745
1023
729
374
195
102
54
48
776
1023
802
410
213
112
59
66
805
1023
873
445
232
122
64
106
852
1023
993
502
262
138
73
168
903
1023
1023
574
298
157
83
240
948
1023
1023
618
321
169
89
267
963
1023
1023
624
324
171
90
252
955
1023
1023
623
323
170
90
238
947
1023
1023
620
322
169
89
225
939
1023
1023
618
321
169
89
215
933
1023
1023
617
320
168
89
208
929
1023
1023
615
319
168
88
210
930
1023
1023
621
322
170
89
225
939
1023
1023
624
324
171
90
247
952
1023
1023
618
321
169
89
365
1012
1023
1023
618
321
169
89
250
953
1023
1023
596
310
163
86
252
954
1023
1023
595
310
163
86
254
956
1023
1023
596
310
163
86
260
959
1023
1023
599
311
164
86
268
963
1023
1023
601
313
165
87
273
965
1023
1023
602
313
165
87
270
964
1023
1023
601
313
165
87
280
969
1023
1023
604
314
165
87
294
976
1023
1023
608
316
166
88
306
982
1023
1023
611
318
167
88
310
984
1023
1023
612
318
167
88
310
985
1023
1023
611
318
167
88
305
982
1023
1023
612
318
167
88
304
982
1023
1023
612
318
167
88
293
976
1023
1023
611
318
167
88
276
967
1023
1023
607
316
166
87
275
967
1023
1023
610
317
167
88
276
967
1023
1023
612
318
167
88
295
977
1023
1023
618
321
169
89
310
984
1023
1023
623
323
170
90
323
991
1023
1023
626
325
171
90
332
995
1023
1023
629
327
172
91
351
1005
1023
1023
635
330
174
91
390
1023
1023
1023
645
335
176
93
540
1023
1023
1023
664
345
181
96
558
1023
1023
1023
649
337
177
94
486
1023
1023
1023
620
323
170
90
436
1023
1023
1023
616
320
169
89
438
1023
1023
1023
619
322
169
89
451
1023
1023
1023
622
323
170
90
456
1023
1023
1023
621
323
170
90
446
1023
1023
1023
618
321
169
89
432
1023
1023
1023
620
322
170
90
435
1023
1023
1023
624
324
171
90
429
1023
1023
1023
626
325
171
90
427
1023
1023
1023
628
326
172
91
418
1023
1023
1023
625
325
171
90
383
1021
1023
1023
619
321
169
89
337
998
1023
1023
611
318
167
88
235
945
1023
1023
612
318
167
88
228
940
1023
1023
631
328
172
91
275
967
1023
1023
653
339
178
94
370
1015
1023
1023
658
341
179
95
334
997
1023
1023
645
335
176
93
305
982
1023
1023
641
333
175
92
284
971
1023
1023
641
333
175
92
268
963
1023
1023
642
333
175
92
260
958
1023
1023
648
336
177
93
272
965
1023
1023
652
338
178
94
276
967
1023
1023
653
338
178
94
265
961
1023
1023
651
338
178
94
250
953
1023
1023
652
338
178
94
239
947
1023
1023
655
339
178
94
239
946
1023
1023
660
342
180
95
243
949
1023
1023
663
344
181
95
239
946
1023
1023
663
343
181
95
227
940
1023
1023
663
344
181
95
219
935
1023
1023
666
345
181
96
219
935
1023
1023
669
347
182
96
216
933
1023
1023
672
348
183
96
211
930
1023
1023
672
348
183
96
205
926
1023
1023
673
349
183
97
201
924
1023
1023
675
350
184
97
198
921
1023
1023
678
351
185
97
193
918
1023
1023
680
352
185
97
190
916
1023
1023
684
354
186
98
188
914
1023
1023
687
355
187
98
185
912
1023
1023
689
357
188
99
178
907
1023
1023
691
357
188
99
175
904
1023
1023
694
359
189
99
176
906
1023
1023
698
361
190
100
177
906
1023
1023
701
363
191
100
173
903
1023
1023
703
364
191
101
168
899
1023
1023
704
364
191
101
162
894
1023
1023
706
365
192
101
160
892
1023
1023
706
366
192
101
158
891
1023
1023
710
367
193
101
158
890
1023
1023
712
368
193
102
156
889
1023
1023
715
369
194
102
157
889
1023
1023
717
370
195
103
158
890
1023
1023
719
371
195
103
164
895
1023
1023
721
372
196
103
171
901
1023
1023
724
374
196
103
177
906
1023
1023
724
374
197
104
186
912
1023
1023
726
375
197
104
193
917
1023
1023
726
375
197
104
195
919
1023
1023
725
375
197
104
193
917
1023
1023
723
373
196
103
188
913
1023
1023
722
373
196
103
181
909
1023
1023
723
374
196
103
176
905
1023
1023
724
374
197
104
172
901
1023
1023
727
375
197
104
170
900
1023
1023
729
377
198
104
169
899
1023
1023
733
378
199
105
170
900
1023
1023
735
380
199
105
171
900
1023
1023
736
380
200
105
166
896
1023
1023
735
380
200
105
161
892
1023
1023
737
380
200
105
155
888
1023
1023
738
381
200
105
150
883
1023
1023
741
383
201
106
148
881
1023
1023
744
384
202
106
145
879
1023
1023
748
386
203
107
146
879
1023
1023
751
388
204
107
148
881
1023
1023
755
390
205
108
154
886
1023
1023
760
392
206
108
171
900
1023
1023
766
395
208
109
221
935
1023
1023
783
404
649
1023
1023
1023
1023
1023
987
507
268
142
661
1023
1023
1023
795
411
216
114
61
33
19
11
7
4
3
2
2
2
1
1
1
1
1
1
1
1
1
1
1
1
1
1
1
1
1
1
1
1
1
1
1
1
1
1
1
1
1
1
1
1
1
1
1
1
1
1
1
1
1
1
89
129
64
32
17
9
5
3
461
813
459
235
122
64
35
21
482
818
480
246
128
67
36
20
171
321
165
83
43
23
13
7
4
3
2
1
1
1
1
1
1
1
1
1
1
1
3
74
130
223
411
554
639
692
725
700
657
634
670
638
646
700
714
771
739
784
841
911
1017
1023
1023
934
924
1015
1023
1023
1023
1023
1023
1023
1023
1023
1023
1023
1023
1023
1023
1023
1023
1023
1023
1023
1023
1023
1023
1023
1023
1023
1023
1023
1023
1023
1023
1023
1023
1023
1023
1023
1023
1023
1023
1023
1023
1023
1023
1023
1023
1023
1023
1023
1023
1023
1023
1023
1023
1023
1023
1023
1023
1023
1023
1023
1023
1023
1023
1023
1023
1023
1023
1023
1023
1023
1023
1023
1023
1023
1023
1023
1023
1023
1023
1023
1023
1023
1023
1023
1023
1023
1023
1023
1023
1023
1023
1023
1023
1023
1023
1023
1023
1023
1023
1023
1023
1023
1023
1023
1023
1023
1023
1023
1023
1023
1023
1023
1023
1023
1023
1023
1023
1023
1023
1023
1023
1023
1023
1023
1023
1023
1023
1023
1023
1023
1023
1023
1023
1023
1023
1023
1023
1023
1023
1023
1023
1023
1023
1023
1023
1023
1023
1023
1023
1023
1023
1023
1023
1023
1023
1023
1023
1023
1023
1023
1023
1023
1023
1023
1023
1023
1023
1023
1023
1023
1023
1023
1023
1023
1023
1023
1023
1023
1023
1023
1023
1023
1023
1023
1023
1023
1023
1023
1023
1023
1023
1023
1023
1023
1023
1023
1023
1023
1023
1023
1023
1023
1023
1023
1023
1023
1023
1023
1023
1023
1023
1023
1023
1023
1023
1023
1023
1023
1023
1023
1023
1023
1023
1023
1023
1023
1023
1023
1023
1023
1023
1023
1023
1023
1023
1023
1023
1023
1023
1023
1023
1023
1023
1023
1023
1023
1023
1023
994
972
1023
1023
1023
1023
1023
1023
1023
1023
1023
1023
1023
1023
1023
1023
1023
1002
1007
1023
1023
1023
1023
1023
956
935
1023
1023
1023
1023
1023
1023
989
993
1023
1023
1023
1023
1023
1023
1023
1023
1023
1023
1023
1023
1023
1023
1023
1023
1023
1023
1023
1023
1023
1023
1023
1023
1023
1023
1023
1023
1023
1023
1023
1023
1023
1023
1023
1023
1023
1023
1023
1023
1023
1023
1023
1023
1023
1023
1023
1023
1023
1023
1023
1023
1023
1023
1023
1023
1023
1023
1023
1023
1023
1023
1023
1023
1023
1023
1023
1023
1023
1023
1023
1023
1023
1023
1023
1023
1023
1023
909
822
888
919
943
1023
986
709
452
416
437
385
434
631
644
386
203
109
65
64
82
243
314
174
88
46
25
14
8
5
4
3
2
2
1
1
1
1
1
1
1
1
1
1
1
1
1
1
1
1
1
1
1
1
1
1
1
1
1
1
1
100
127
62
32
16
9
5
3
22
57
28
14
7
4
3
86
303
454
366
187
194
331
444
539
718
788
619
387
341
458
564
667
892
975
783
543
494
554
604
672
878
960
714
465
384
365
354
435
664
707
487
256
166
242
286
330
585
633
376
193
100
62
78
189
417
424
247
126
65
50
70
110
307
389
241
122
63
39
39
67
285
401
293
148
76
52
89
185
461
577
396
202
137
172
242
354
599
664
473
245
131
131
171
258
466
530
372
189
97
51
28
78
269
357
201
102
53
28
15
9
100
147
77
39
20
11
6
4
73
90
45
22
12
6
4
2
2
1
1
1
1
1
1
1
17
39
19
10
5
3
2
1
1
1
1
1
1
1
0
1
1
1
1
1
1
1
0
1
1
2
1
1
1
1
1
37
225
289
172
87
45
23
12
50
278
399
291
147
100
192
233
303
556
720
582
341
228
332
415
449
594
684
508
265
210
286
358
428
633
664
475
249
136
144
187
299
507
569
399
203
105
102
130
189
367
455
291
148
76
87
111
94
215
270
156
79
41
22
12
7
98
120
59
30
16
8
5
3
2
2
1
1
1
1
1
1
1
1
1
1
1
1
1
1
1
1
1
1
1
1
1
1
1
1
1
1
1
1
1
1
90
227
231
138
107
134
141
115
213
239
120
61
32
16
9
5
3
2
1
1
1
1
1
1
1
1
1
1
1
1
1
1
19
48
24
12
6
3
2
1
40
53
26
13
7
4
2
1
43
68
34
17
9
5
3
2
1
1
1
1
1
1
1
1
1
1
1
1
1
0
1
0
5
18
9
4
3
2
1
1
80
141
73
37
19
10
5
3
103
228
154
77
39
20
11
11
156
266
170
86
44
72
110
159
375
506
360
182
93
49
44
117
305
427
307
155
79
90
162
174
372
486
307
156
80
49
37
70
236
347
230
116
60
33
55
141
334
437
299
151
78
73
162
253
391
478
408
218
112
108
119
179
405
514
345
175
93
122
212
307
483
562
444
276
221
258
250
274
490
645
520
269
155
201
280
361
552
704
621
353
206
224
267
355
571
723
645
381
228
309
355
392
559
682
590
379
262
294
361
482
741
900
794
548
416
443
485
553
762
894
790
560
442
511
605
696
864
963
892
703
635
688
767
856
1023
1023
959
692
615
708
731
765
936
1023
1020
794
609
619
698
738
913
1023
911
688
538
618
768
801
860
935
825
644
532
553
653
745
893
984
883
626
488
507
503
523
698
835
751
496
317
367
476
547
754
911
785
474
318
344
408
509
712
833
701
420
320
311
364
474
640
711
570
384
251
282
454
568
797
1020
1023
893
803
848
922
916
978
973
777
501
315
243
264
305
402
505
421
213
112
72
121
211
420
611
543
299
153
87
129
187
345
477
446
259
135
139
188
262
427
550
475
263
135
145
203
211
390
567
496
261
136
135
195
278
454
634
552
289
148
168
221
256
434
623
570
316
170
187
278
350
513
638
515
302
188
207
275
307
465
633
554
306
209
236
285
342
485
638
603
430
299
297
312
371
601
754
675
442
260
313
390
433
582
750
732
524
329
309
361
420
578
688
563
311
211
308
423
494
621
732
628
356
192
157
189
271
448
579
526
312
159
136
169
195
371
529
476
264
137
174
277
326
455
583
514
270
138
75
114
182
347
471
403
209
107
63
94
149
337
513
475
259
132
159
295
315
377
487
447
236
120
81
137
178
316
452
369
189
96
76
136
227
398
538
433
221
113
74
114
176
365
527
426
218
112
77
78
157
411
560
438
228
117
115
193
192
325
544
533
291
149
110
163
193
336
517
488
271
139
127
197
250
374
508
450
245
149
163
218
266
400
606
640
416
247
172
194
236
416
616
567
307
157
131
225
324
457
570
512
328
171
199
305
366
474
608
535
285
153
164
225
245
381
516
498
274
140
109
186
250
423
596
528
284
147
167
222
242
382
536
527
333
190
214
270
304
413
506
415
223
118
161
281
363
564
813
894
820
710
710
853
910
986
1023
902
599
353
287
313
386
531
645
526
277
144
104
128
196
365
535
523
378
194
127
183
248
365
548
500
275
141
142
199
261
402
588
525
301
158
151
210
257
408
611
588
417
290
280
317
365
524
711
681
451
292
290
337
374
519
688
703
530
339
268
321
396
539
708
697
505
367
351
374
475
603
767
723
514
363
392
471
514
619
771
723
478
301
286
350
418
548
732
691
503
385
409
451
494
658
826
738
458
241
238
348
436
551
733
731
525
315
261
326
371
476
606
549
349
181
188
273
328
417
573
522
299
153
121
183
278
389
539
509
307
157
106
159
230
386
536
491
296
151
137
196
268
400
588
580
379
207
176
256
327
436
596
593
360
183
112
141
241
411
614
647
449
246
214
223
260
381
554
549
374
193
160
206
248
377
562
621
406
206
170
281
355
461
598
596
355
182
160
234
305
396
571
568
326
178
226
318
366
466
603
607
402
207
158
209
302
414
573
594
409
221
178
237
309
426
567
585
405
212
217
277
343
470
643
620
384
196
172
258
339
513
701
665
455
258
262
303
333
426
613
680
473
287
290
354
386
441
591
610
464
308
283
340
400
507
660
638
415
254
211
240
298
407
582
611
424
244
213
296
358
423
561
555
329
170
212
340
397
459
586
602
417
221
224
266
299
438
551
506
386
306
332
447
579
755
977
1023
921
793
797
838
813
823
903
814
533
282
207
287
334
418
578
563
335
171
139
219
284
374
554
556
338
197
167
184
208
318
544
591
371
196
215
294
335
347
493
523
313
166
199
301
375
461
627
631
448
260
223
308
389
456
614
666
484
325
275
299
340
446
616
616
380
215
212
301
423
553
702
672
420
223
263
356
346
448
667
726
557
347
270
266
319
473
681
686
504
316
299
336
354
442
638
683
489
336
319
395
442
528
650
657
452
265
273
448
632
688
702
591
379
220
203
231
295
408
615
694
516
291
165
185
237
335
498
567
411
229
224
318
336
396
533
563
379
198
179
255
290
344
540
616
453
270
271
336
335
406
593
656
448
230
187
290
347
409
602
610
441
354
308
334
390
479
600
619
508
370
280
252
290
369
593
637
476
295
264
329
383
450
632
695
576
359
279
290
366
492
643
672
500
341
327
364
395
481
671
706
512
270
224
325
446
539
661
659
517
384
330
362
426
567
762
743
579
420
381
387
415
516
697
725
564
413
375
441
516
592
706
747
588
401
367
445
481
561
698
731
595
432
400
417
476
557
726
754
579
424
365
415
497
575
777
820
610
370
314
390
456
551
728
732
567
392
326
393
480
535
687
692
500
338
321
376
448
525
655
678
495
273
247
363
417
477
635
693
541
338
287
350
405
495
688
784
628
405
305
296
328
432
658
815
792
662
690
861
1023
1023
1023
1023
1023
734
546
529
528
542
658
667
444
231
163
263
367
435
608
667
456
239
173
202
264
329
502
567
445
265
242
302
335
422
567
555
412
261
238
292
370
425
615
713
566
360
292
283
316
375
548
613
452
320
304
357
403
502
670
699
527
342
273
325
371
491
713
747
573
397
366
380
451
559
724
734
551
341
302
351
425
517
707
793
625
410
397
481
509
520
680
776
665
524
476
468
516
603
792
864
713
514
473
515
516
528
696
769
608
449
395
407
467
588
746
762
613
413
364
392
399
427
581
632
469
291
290
396
409
428
609
631
412
222
223
299
355
404
571
604
439
235
192
287
389
493
685
684
459
249
206
279
345
435
633
694
560
375
320
367
352
409
568
626
525
344
245
276
318
411
586
669
550
323
269
353
413
459
629
685
500
311
280
327
387
431
604
741
669
440
286
301
345
427
608
711
573
366
312
381
442
532
710
713
515
302
280
420
510
529
631
649
496
338
288
323
362
433
590
708
633
412
300
321
392
419
581
707
598
331
206
231
317
455
664
740
593
371
283
326
392
466
615
675
527
404
349
380
392
470
662
754
640
463
355
384
475
540
715
753
630
402
276
350
407
449
590
648
541
393
338
365
376
432
609
699
579
377
262
288
361
430
579
651
534
364
333
401
459
471
612
651
494
291
206
244
331
425
632
723
587
373
234
292
405
473
616
712
669
546
547
685
868
1023
1023
1023
1023
827
691
631
611
586
641
616
419
251
190
188
246
345
492
555
450
239
151
210
284
351
495
543
418
245
196
240
277
354
539
655
470
256
194
241
273
361
562
647
506
318
246
279
328
382
525
612
550
374
274
269
267
345
525
622
569
397
303
324
375
411
583
707
616
413
308
343
386
442
633
710
594
370
264
330
406
472
613
717
612
406
308
291
356
459
641
763
727
532
359
358
431
512
669
783
667
460
398
460
523
582
701
741
597
395
360
446
525
557
671
742
659
464
337
340
362
406
565
665
580
383
269
280
287
306
469
604
506
314
184
195
222
307
515
626
533
393
280
264
318
387
550
608
471
300
254
291
314
332
490
633
504
282
237
306
357
428
579
656
519
301
245
334
372
378
515
645
573
374
286
296
364
397
561
670
592
426
313
304
333
406
582
698
581
381
331
381
409
416
578
684
567
378
313
301
334
397
574
697
629
420
297
346
398
424
559
668
583
428
360
363
385
433
607
686
540
361
312
386
446
508
652
744
631
409
297
315
417
482
631
743
622
410
370
462
526
554
620
655
573
398
336
435
558
608
718
760
640
431
357
413
491
526
657
756
673
461
336
395
470
524
637
701
620
465
414
464
478
449
558
639
560
398
360
396
414
437
590
706
625
412
292
339
450
524
609
696
648
431
327
388
461
458
563
667
606
441
359
397
468
522
728
886
890
821
745
800
964
1015
1023
1023
949
680
494
469
467
478
632
703
570
315
193
190
265
335
469
636
593
395
247
224
265
328
469
592
553
401
271
284
340
432
647
761
645
382
240
256
300
375
537
681
594
402
284
307
366
368
517
702
639
475
426
455
430
422
533
649
614
431
325
370
404
430
559
709
663
442
293
298
384
485
670
785
679
464
370
436
519
561
660
740
647
503
465
477
507
517
687
813
758
582
477
466
428
453
620
739
677
532
501
522
560
552
682
831
810
587
412
416
477
495
576
635
574
433
335
343
368
353
457
556
531
378
249
259
306
356
473
584
510
316
213
269
369
419
507
566
546
400
230
223
305
379
501
593
557
406
289
306
369
434
558
622
556
404
322
412
505
483
562
661
562
348
239
315
404
453
590
708
629
462
398
424
432
415
513
637
610
461
353
419
512
469
572
710
612
424
354
391
465
496
604
731
706
521
394
394
429
510
715
844
708
436
288
317
433
502
624
760
716
509
352
304
381
488
705
874
791
517
346
346
415
438
536
671
626
465
367
385
457
510
622
749
700
485
340
383
459
541
698
803
722
566
490
498
555
590
687
778
713
547
429
434
508
590
712
819
756
561
428
455
527
571
708
777
697
494
370
372
436
494
625
756
708
507
368
344
386
419
581
723
674
475
349
383
447
514
631
725
653
486
365
397
429
487
653
743
643
457
340
336
370
413
585
795
835
751
737
872
992
1023
1023
1023
1023
890
680
585
531
499
610
706
602
357
205
234
306
333
440
538
488
323
230
306
373
411
550
664
576
407
293
316
377
388
480
605
563
411
297
259
309
393
542
673
582
388
273
335
383
396
507
647
662
517
392
385
427
450
540
666
643
489
388
382
397
434
567
700
671
531
434
447
465
452
558
656
636
499
405
402
453
549
721
811
717
497
372
390
417
479
611
740
710
578
457
459
573
614
680
806
755
562
436
448
539
598
723
811
736
563
448
444
463
496
600
737
696
517
392
322
348
417
520
645
625
415
273
277
342
407
487
593
542
368
257
264
303
375
526
650
610
395
232
235
302
360
457
539
522
386
288
317
369
399
472
569
545
402
285
319
394
442
525
643
629
432
280
290
328
350
489
647
631
466
329
295
321
373
487
634
635
512
401
424
465
450
491
616
611
445
288
302
382
434
537
652
609
419
261
286
405
490
617
722
657
493
402
453
459
441
499
611
625
497
365
381
447
475
569
673
650
496
367
383
423
457
525
647
629
467
337
360
404
404
506
678
666
470
365
368
436
475
568
707
684
491
308
302
354
401
500
634
571
407
287
317
375
400
511
682
681
490
338
318
369
436
562
705
673
495
327
274
327
424
571
748
732
517
364
366
408
462
567
697
645
436
281
306
308
343
545
751
673
443
279
258
356
396
473
641
639
422
291
284
318
359
497
676
671
500
326
275
311
392
531
681
656
430
278
273
358
396
481
622
642
527
477
566
718
846
1023
1023
1023
1023
831
702
661
668
712
796
691
463
337
329
310
313
374
460
459
292
221
288
347
324
344
495
490
342
215
244
333
390
454
544
492
339
224
267
323
330
449
611
605
436
266
251
331
354
430
567
562
417
314
334
388
459
567
717
658
426
268
338
424
413
511
707
719
521
333
290
353
387
481
661
681
552
423
392
439
503
613
753
711
502
370
397
463
515
617
804
800
588
409
395
436
492
643
813
779
605
455
436
519
610
700
775
727
568
426
384
407
484
605
724
727
620
459
399
383
410
496
615
610
490
341
291
323
348
480
624
596
457
325
287
331
356
433
592
615
434
239
207
311
356
450
633
657
489
359
339
350
362
464
622
592
467
333
277
341
427
456
619
644
433
337
359
356
380
486
640
661
501
350
361
417
446
526
622
612
485
362
382
448
493
551
656
684
539
398
335
338
359
466
617
616
467
355
356
430
498
576
668
659
486
362
378
435
463
517
669
730
584
399
332
365
420
529
717
681
544
398
374
433
457
473
605
650
554
429
377
423
473
541
684
698
547
364
312
383
468
564
733
713
526
385
364
413
443
539
670
705
555
382
304
324
380
527
718
711
522
347
305
336
412
566
726
694
557
441
380
383
400
493
707
744
587
415
389
425
439
522
728
757
567
387
312
378
482
590
732
718
550
414
424
468
487
530
654
693
594
434
362
415
480
545
683
669
473
289
260
331
401
499
659
676
495
390
366
356
358
435
619
663
505
346
336
445
488
557
678
681
537
375
307
354
421
519
672
743
731
681
767
842
910
1023
1023
1023
1023
820
715
700
635
622
686
649
480
275
205
300
384
411
548
608
476
313
254
267
273
377
539
556
420
286
286
344
340
356
501
589
499
339
266
298
383
483
607
629
513
366
307
343
368
425
594
700
595
442
365
375
388
450
569
604
458
351
349
425
477
504
652
734
604
429
379
395
383
503
722
785
597
369
308
383
481
582
702
689
547
420
397
432
446
502
676
742
631
500
452
530
632
692
767
730
550
465
494
517
515
573
738
719
579
445
381
441
490
580
702
694
544
396
355
418
459
493
611
645
464
295
268
334
417
471
621
663
491
299
216
250
293
374
552
593
429
285
262
317
373
464
626
647
485
296
253
327
367
450
603
657
508
316
284
389
452
489
605
590
472
338
314
384
422
497
646
665
558
382
325
361
419
481
623
640
525
403
377
401
430
515
657
674
550
405
307
308
367
463
620
615
497
398
375
390
450
538
681
693
542
414
377
407
464
585
751
757
596
465
400
390
394
462
612
621
494
336
302
402
483
552
708
735
593
430
414
479
503
528
643
664
541
393
336
384
458
538
675
682
503
367
323
386
478
547
669
731
618
466
399
386
430
542
732
778
596
430
400
444
430
442
582
653
541
378
340
396
472
574
699
695
564
399
409
537
562
548
650
663
540
432
441
471
507
557
694
731
602
429
362
411
465
525
686
702
592
478
456
441
427
536
682
683
517
389
370
371
429
526
689
705
505
344
313
365
425
527
666
680
619
485
420
444
437
448
616
756
675
461
292
305
353
449
614
677
570
455
492
668
821
964
1023
1023
1023
981
881
791
751
739
809
806
649
443
346
400
443
461
572
600
444
263
240
327
385
415
551
613
529
366
266
320
392
458
624
680
567
411
368
402
414
466
642
678
531
362
298
359
432
472
641
776
661
454
379
387
419
487
641
693
583
420
362
401
414
471
642
697
559
388
326
392
486
589
776
748
611
467
396
365
420
523
702
807
669
456
387
442
486
548
708
815
746
528
427
464
525
564
676
740
637
546
534
604
637
627
704
741
654
484
433
470
561
648
788
822
620
393
295
347
419
457
538
591
505
341
247
312
393
457
590
604
480
314
238
274
330
376
536
642
494
266
231
330
425
483
535
513
436
356
314
293
311
373
541
618
503
318
253
281
342
419
613
671
506
324
286
344
390
452
622
688
551
373
299
388
459
472
561
664
561
396
324
384
429
446
591
640
532
376
314
338
387
464
627
712
594
427
387
424
468
508
632
656
578
428
345
327
382
449
581
645
575
425
335
348
431
531
656
708
580
423
322
353
437
523
623
647
530
377
392
500
492
477
623
698
605
477
391
378
390
451
615
705
599
385
315
358
446
540
659
700
637
489
373
397
478
522
614
663
522
326
337
386
449
519
609
660
589
443
347
348
394
461
603
692
619
491
466
512
520
464
592
709
660
448
316
351
447
506
675
738
585
401
347
382
428
467
629
751
632
409
338
399
466
545
719
800
707
480
350
414
470
490
652
751
665
471
334
372
445
521
687
754
623
419
317
372
374
374
528
677
585
415
322
308
324
381
569
649
488
305
234
266
341
420
541
590
484
344
279
339
410
463
594
654
563
386
273
296
359
415
591
778
759
646
658
778
910
996
1023
1023
1023
873
738
697
659
612
684
705
565
332
197
215
232
287
451
578
529
346
265
317
335
364
535
657
522
303
248
285
347
383
492
574
501
352
279
290
318
377
573
689
603
412
297
342
391
422
626
718
573
416
368
342
373
539
735
766
615
389
305
348
410
455
597
682
619
459
380
423
503
590
740
794
659
445
312
336
422
492
629
724
650
466
366
464
604
717
823
870
719
516
417
463
494
549
711
812
736
587
545
597
582
563
697
789
687
491
421
466
507
545
655
729
631
443
400
443
435
436
582
785
796
571
432
354
338
372
473
581
498
319
251
288
347
394
529
619
555
403
304
400
481
474
587
680
541
389
319
361
420
429
543
605
504
352
312
346
416
481
603
678
576
408
299
343
385
388
565
696
601
439
365
428
453
446
571
677
589
434
356
365
423
439
599
726
671
452
322
349
416
498
688
808
691
456
309
320
410
505
632
699
614
477
383
351
374
442
591
709
681
510
406
403
454
533
646
690
569
409
362
365
375
429
603
744
661
477
428
486
535
544
608
691
688
517
384
391
475
533
688
790
655
429
328
385
499
502
588
691
621
458
383
408
463
499
567
644
589
432
374
420
492
539
669
789
739
530
366
352
401
479
668
797
732
524
396
393
428
454
603
732
669
490
380
384
429
474
624
731
660
469
423
456
536
583
633
667
591
461
396
482
574
575
626
717
664
466
320
354
469
553
726
821
701
526
413
388
406
507
702
811
674
438
315
321
393
442
501
615
618
479
364
373
417
460
596
697
588
417
320
353
412
468
593
696
638
471
346
334
384
452
603
703
626
429
316
325
356
463
632
764
786
752
771
884
983
1023
1023
1023
1023
912
720
632
599
550
587
610
493
320
214
240
288
335
426
570
546
373
268
252
265
296
408
550
573
403
273
310
355
387
501
631
597
399
280
303
372
422
525
623
555
371
294
329
352
365
490
643
605
481
406
400
431
434
507
612
588
477
357
355
387
433
565
706
636
457
333
332
414
506
657
727
657
519
475
482
498
527
661
746
657
478
394
416
495
547
655
807
818
616
441
420
477
555
700
844
831
644
510
462
460
500
673
794
743
582
454
447
464
518
658
765
694
572
456
402
387
394
492
622
588
418
268
280
372
390
441
545
546
370
266
298
376
396
474
631
610
396
268
300
369
419
544
648
569
404
330
326
376
436
551
667
629
442
275
326
388
401
505
635
579
399
284
300
363
444
572
654
610
459
355
372
374
404
519
598
578
429
373
366
331
354
501
623
611
492
373
351
380
423
551
664
598
420
306
323
370
419
544
711
656
434
344
368
411
426
522
627
603
449
346
337
377
493
645
723
628
425
294
329
362
416
558
684
698
573
366
285
367
459
611
754
728
536
372
364
436
494
578
678
619
443
327
361
433
465
554
740
777
582
381
309
340
448
612
750
656
454
312
339
412
495
611
721
720
540
399
374
423
516
637
699
624
489
384
330
364
461
624
734
688
521
393
401
428
443
525
679
701
590
494
462
415
418
510
659
713
558
412
397
444
482
605
751
728
600
469
460
492
525
635
721
637
493
409
389
405
412
539
697
695
531
354
330
386
388
496
657
674
549
451
454
451
437
543
689
693
504
345
328
376
408
526
654
626
456
337
373
411
441
549
689
646
476
350
366
498
636
833
1023
1023
971
872
937
995
1023
1023
1023
980
698
448
352
373
368
433
550
516
343
264
310
342
375
457
545
530
401
326
341
347
337
408
570
596
443
325
318
393
465
495
544
538
410
300
291
334
384
510
662
654
479
332
319
340
409
572
734
659
440
293
310
390
448
535
705
695
518
386
362
398
442
541
646
641
492
397
426
465
549
645
748
751
589
446
433
522
616
674
741
666
496
384
428
512
536
605
710
673
543
457
469
558
644
737
821
747
573
441
513
616
635
695
807
757
550
434
453
485
495
559
696
684
480
341
327
370
427
508
602
568
431
262
201
239
288
426
624
620
454
331
304
325
339
410
576
623
465
310
291
356
393
497
652
608
421
328
364
400
408
451
546
572
428
298
329
377
414
495
632
638
504
387
348
359
391
489
618
638
536
480
464
444
428
518
623
621
477
343
366
437
485
576
706
667
487
360
341
368
426
522
641
631
501
444
419
406
440
549
681
630
444
307
323
359
426
590
737
709
530
415
360
390
460
555
665
643
503
399
418
455
462
512
645
683
503
329
336
429
485
579
731
677
465
334
341
388
449
575
715
721
561
413
369
398
462
549
626
651
565
444
420
459
459
546
714
691
524
395
430
450
452
502
667
691
549
432
394
441
479
554
655
642
473
349
396
496
509
540
656
664
543
421
390
428
438
508
637
671
551
432
410
480
569
648
742
709
557
427
424
478
504
606
724
675
496
373
379
431
505
614
765
726
502
320
285
340
383
531
676
633
442
316
337
400
420
505
660
649
460
313
279
340
435
565
707
741
589
425
366
345
370
476
651
676
504
352
336
373
345
424
639
812
804
744
804
928
994
1023
1023
1023
1022
782
665
637
542
530
662
661
472
249
154
231
367
438
545
571
437
301
250
262
294
420
607
644
470
290
208
233
308
432
594
624
461
308
246
300
383
508
642
640
519
385
373
424
454
483
593
590
422
288
301
407
439
534
691
692
524
405
394
445
488
569
708
697
523
368
334
396
468
530
654
710
563
403
442
508
526
587
719
713
560
398
398
466
477
545
709
810
760
660
580
605
622
670
780
734
576
427
394
468
551
629
742
759
603
471
524
616
633
672
754
676
467
336
337
383
400
510
678
676
468
319
312
350
370
446
561
554
417
256
225
312
385
469
572
571
454
316
270
328
395
452
571
610
497
350
315
370
413
491
615
606
447
290
285
329
389
474
602
662
531
389
378
401
415
469
619
648
514
412
435
490
502
527
636
618
452
314
309
368
390
474
628
661
517
367
355
407
429
508
637
669
545
444
470
477
517
632
756
751
596
430
384
419
491
574
672
666
538
383
399
477
497
546
691
735
628
478
406
403
448
579
770
832
695
458
448
576
635
669
734
678
509
359
350
410
465
543
677
737
558
360
360
481
519
548
630
656
508
372
367
433
513
633
760
731
513
333
300
355
372
432
612
666
543
416
413
423
435
501
623
619
497
383
390
478
506
578
715
754
579
368
325
360
365
431
592
639
529
437
443
456
453
559
680
640
498
379
373
467
519
616
730
719
578
460
440
466
497
566
702
702
517
368
347
403
451
516
657
688
528
333
280
355
468
557
691
746
599
382
296
359
443
498
620
616
462
324
283
373
514
576
667
651
479
334
297
395
483
594
716
683
479
312
325
442
574
794
1023
1023
1023
1023
1023
1023
994
915
927
902
726
498
407
400
420
465
564
562
414
265
231
308
414
518
566
491
374
301
280
298
334
385
536
559
482
398
343
321
348
429
608
652
495
365
321
340
382
473
586
602
498
376
363
390
465
535
671
672
552
413
358
363
413
539
698
724
570
442
438
512
537
574
694
707
594
508
512
563
601
643
753
792
685
530
453
504
613
684
775
787
668
514
447
494
570
652
789
804
687
573
541
581
666
775
890
859
672
546
522
567
618
692
816
810
644
484
456
487
493
543
688
742
580
408
338
362
397
445
544
556
429
293
229
276
375
517
616
594
435
291
269
311
312
376
525
595
480
291
231
280
310
390
558
555
412
298
295
316
331
405
548
581
464
331
272
305
375
477
603
628
510
347
265
300
375
453
601
661
542
359
284
314
376
471
611
647
470
307
295
367
456
531
633
614
478
363
328
353
396
457
615
640
518
420
422
407
394
454
590
610
487
350
332
368
439
545
690
686
519
369
313
376
416
479
591
643
565
450
398
409
433
483
624
664
516
362
313
370
411
454
586
637
548
418
375
411
481
532
659
680
512
367
386
474
511
561
697
671
463
305
286
341
408
466
600
652
530
408
401
432
448
501
648
649
492
314
303
410
461
518
640
656
527
381
342
405
425
462
582
637
552
402
349
392
416
451
622
676
550
440
443
498
516
570
698
686
526
368
342
429
497
541
652
659
493
363
351
439
498
543
683
692
524
379
387
409
386
423
619
671
477
318
301
355
400
468
587
594
438
288
254
332
400
486
641
666
529
376
372
417
394
407
565
601
517
459
465
554
639
756
1015
1023
1023
1001
959
948
936
901
961
959
760
530
373
290
297
410
525
511
419
303
276
297
287
340
490
524
377
232
207
294
375
408
525
579
458
313
250
289
353
437
582
626
503
334
270
354
393
393
495
554
448
308
295
350
360
410
564
592
436
288
272
324
392
469
583
578
458
321
273
346
391
445
597
656
568
441
374
399
474
590
729
704
537
379
372
426
492
613
750
720
589
467
453
497
502
525
687
775
659
544
529
557
569
645
808
792
641
504
523
582
630
675
756
757
600
461
457
495
509
597
743
723
562
394
333
347
373
418
546
597
462
307
293
353
401
457
598
605
426
291
298
385
471
475
554
574
477
327
289
351
391
414
409
417
424
445
440
453
445
483
530
542
491
445
425
411
405
411
447
476
465
453
481
519
590
615
574
524
514
486
445
421
425
462
476
486
522
560
606
617
569
541
537
501
461
453
450
441
460
496
512
517
552
585
601
581
556
542
539
547
541
519
501
527
555
519
563
563
548
543
507
489
524
581
561
486
474
507
540
519
505
567
602
586
556
549
544
516
501
512
572
562
489
462
483
509
493
474
498
559
562
498
455
496
552
605
638
536
433
426
467
468
468
489
504
516
528
526
539
531
526
469
494
520
515
481
467
478
530
587
619
568
514
440
473
514
539
515
471
452
488
514
515
557
593
615
641
642
597
547
544
558
560
559
501
435
440
440
453
434
404
422
432
470
481
479
444
397
431
462
480
486
516
580
551
470
418
415
421
468
502
510
535
532
494
467
457
476
486
504
497
444
430
407
461
556
649
723
812
901
1017
1018
1023
1023
1023
1012
919
778
666
590
571
590
453
333
329
376
403
479
497
437
369
327
286
300
398
486
522
482
409
388
409
392
382
361
380
378
396
380
341
333
356
438
478
472
360
267
243
232
281
371
390
370
399
417
374
329
334
357
416
426
371
382
428
474
453
397
411
447
437
410
389
400
399
425
478
525
509
529
567
575
607
640
650
654
618
624
641
587
581
626
643
607
574
543
572
600
637
676
671
672
670
687
690
724
745
761
729
699
679
687
686
695
675
670
692
691
612
589
637
614
552
500
472
511
557
494
449
448
482
460
448
474
486
516
520
475
453
446
436
481
483
429
382
359
367
382
393
410
446
505
522
434
354
360
420
494
514
478
445
414
425
461
488
502
543
532
467
456
475
535
547
519
474
424
372
364
416
456
460
460
474
505
529
543
462
425
448
468
472
430
429
482
527
585
571
592
607
537
487
479
483
485
484
500
507
455
424
468
497
526
563
589
546
484
472
474
455
430
433
456
500
498
469
515
584
611
601
557
481
417
388
383
426
472
520
597
615
562
559
605
578
512
486
482
468
437
442
469
498
510
515
490
490
507
491
419
409
454
524
593
606
555
522
496
525
547
540
483
479
450
425
434
464
461
479
497
487
455
468
560
588
570
575
561
554
556
569
557
538
490
473
517
546
577
585
589
594
574
556
544
567
603
620
605
546
502
501
488
519
526
479
454
504
554
539
519
507
475
474
460
480
485
487
498
513
494
484
543
605
603
570
518
479
484
485
484
474
483
500
486
452
436
483
561
649
746
868
995
1023
1023
1023
1023
1023
1003
968
894
821
717
647
575
481
442
460
442
364
330
352
364
363
421
454
414
409
403
405
421
434
444
467
418
392
423
404
411
392
403
439
477
467
438
420
401
431
485
500
430
409
499
544
465
428
480
531
528
491
512
492
480
499
504
523
547
549
540
491
431
464
537
564
577
569
522
514
495
526
598
594
554
573
589
555
505
521
594
648
636
598
552
557
575
562
553
585
618
607
630
695
720
696
670
650
663
660
616
589
585
589
614
649
658
638
617
587
556
562
549
532
519
457
433
431
456
533
549
532
495
466
475
504
460
433
418
393
340
362
407
409
405
427
452
478
487
466
430
433
466
451
381
391
404
411
408
433
483
515
505
431
426
446
447
445
424
428
456
423
417
425
448
448
436
451
487
514
498
507
463
428
468
492
528
583
548
460
388
362
468
540
578
616
647
548
431
376
366
435
540
608
656
733
754
599
416
367
478
552
484
448
495
567
573
584
609
619
591
544
493
437
436
515
555
642
725
651
642
612
565
526
505
483
472
526
577
631
707
713
662
633
588
549
520
512
565
591
555
522
487
482
510
545
542
518
496
552
611
595
494
438
435
493
580
586
525
515
529
525
530
606
635
632
611
488
392
421
486
514
479
430
404
420
434
425
445
505
552
544
517
510
488
516
567
594
557
561
555
545
543
554
533
490
478
531
540
505
440
465
475
459
467
477
464
414
403
430
433
437
453
483
493
507
490
440
408
412
463
546
598
512
410
354
372
380
362
397
449
447
443
462
423
391
421
456
481
519
564
635
758
892
1023
1023
1023
1023
1023
990
899
798
701
596
569
542
430
344
319
324
345
346
371
452
473
413
357
301
273
286
291
402
513
512
485
442
423
418
438
464
445
397
375
377
392
456
468
447
428
439
402
391
441
508
509
485
449
419
433
460
469
511
601
645
629
561
507
465
457
483
483
494
495
514
520
504
569
572
557
557
526
500
540
590
550
498
522
517
500
535
544
529
573
628
671
723
694
622
562
555
556
592
607
588
570
586
582
565
604
674
713
679
675
618
593
619
604
560
527
465
458
494
499
484
516
521
482
465
423
398
382
383
404
450
457
421
416
422
449
413
373
384
430
457
438
399
417
476
481
418
349
394
400
412
469
487
472
461
458
425
393
400
419
457
549
618
601
545
450
392
399
406
405
414
434
471
493
521
478
455
496
538
573
520
441
438
460
515
542
545
539
514
498
479
509
517
501
493
476
440
399
413
453
458
485
487
524
541
504
513
529
522
503
519
567
584
568
549
566
577
578
519
478
464
476
464
455
452
464
455
453
479
458
483
502
508
598
633
557
459
406
477
576
574
561
587
570
473
403
435
500
521
486
502
522
492
456
474
474
507
591
631
560
499
457
444
451
465
502
532
521
474
479
472
463
483
515
513
480
463
525
620
587
494
461
447
448
463
495
540
553
564
556
542
502
493
534
533
533
540
509
519
587
611
591
528
512
478
481
479
495
513
536
548
582
558
500
480
481
469
459
476
510
527
520
472
460
454
455
479
457
457
500
494
467
473
465
467
475
472
483
520
537
554
498
453
418
402
445
522
615
698
789
886
975
1023
1023
1023
1023
996
870
774
676
622
535
445
419
429
449
468
395
346
360
388
400
416
419
369
343
349
393
436
476
469
446
384
357
387
421
409
405
431
471
512
455
339
337
405
461
487
496
454
437
465
494
501
491
477
473
472
497
506
520
531
531
521
531
516
518
514
538
553
572
532
496
501
514
487
475
544
600
636
629
554
541
553
536
508
526
566
606
646
673
672
621
604
616
615
586
553
549
568
530
583
646
639
607
609
626
609
605
575
565
595
610
608
598
586
556
559
591
573
491
482
514
517
494
441
388
371
321
343
425
404
361
347
317
321
339
346
370
420
443
451
444
405
333
294
326
380
402
433
438
408
418
422
416
434
450
451
452
427
375
352
346
389
412
407
440
487
465
450
442
436
452
453
451
440
436
446
494
538
500
481
506
545
512
449
433
462
514
512
489
446
412
394
444
481
483
492
483
469
459
473
506
483
475
504
547
563
565
523
504
506
503
532
530
478
515
566
567
496
455
466
490
487
458
440
438
474
517
537
565
613
635
592
512
473
455
474
517
558
561
564
532
490
506
570
565
553
555
520
459
418
435
480
504
496
542
563
519
507
504
525
587
597
530
478
457
458
475
489
474
519
528
501
522
555
605
604
558
496
491
538
542
487
489
538
544
522
528
527
512
483
467
510
553
548
547
541
522
528
502
569
651
620
563
555
496
457
456
442
462
488
499
524
505
473
452
459
459
432
426
490
555
567
537
482
452
450
430
432
483
514
516
534
556
504
488
507
447
414
407
466
492
510
613
723
795
884
912
968
1023
1023
1023
960
866
773
655
548
529
510
459
402
385
408
411
415
438
415
382
408
401
386
351
365
377
377
452
503
468
421
374
399
447
472
507
531
527
518
492
459
468
479
497
472
415
403
414
463
497
474
460
475
501
553
563
552
534
534
529
493
515
520
481
426
436
505
539
566
588
583
562
506
464
485
481
488
538
538
528
570
572
612
633
600
571
563
558
576
606
616
548
489
499
571
625
629
599
596
610
614
594
578
574
589
587
617
636
637
636
590
549
540
528
544
541
544
534
515
560
584
523
479
434
369
349
360
375
392
444
467
423
384
372
399
408
438
440
395
397
429
444
437
466
474
429
422
418
432
461
482
452
439
405
403
426
432
409
427
455
440
432
431
481
502
476
490
484
446
444
447
416
429
492
515
530
524
485
431
399
417
425
428
489
483
446
445
473
470
428
418
457
478
463
442
446
489
493
475
485
488
482
517
537
480
458
517
524
480
472
451
465
503
514
460
430
438
470
488
465
469
482
480
480
494
510
506
484
517
525
500
515
536
476
445
442
453
472
485
485
516
506
467
476
506
532
563
573
581
571
541
494
476
469
480
540
598
587
532
494
459
451
490
558
574
556
572
564
520
485
501
532
559
563
571
534
498
444
464
513
569
662
701
624
551
528
556
569
590
606
628
537
482
467
471
512
588
635
601
558
517
492
499
518
533
533
503
513
509
502
483
471
501
501
466
454
465
474
426
397
438
499
524
506
507
504
509
489
474
459
405
434
515
528
512
512
493
463
492
569
654
715
784
865
939
986
1023
1023
1023
967
858
799
723
626
555
483
415
384
368
369
429
430
409
376
381
387
397
395
399
415
400
385
392
403
388
382
407
456
473
444
397
380
379
391
436
466
454
440
443
485
479
436
405
418
456
487
500
494
507
521
512
498
534
567
578
557
503
507
498
495
492
469
487
499
523
567
557
587
552
500
487
512
535
550
569
584
577
526
528
556
567
577
600
596
579
596
650
666
634
597
601
614
640
648
626
606
602
573
597
617
590
571
584
576
588
620
623
581
531
517
516
491
473
493
508
476
418
394
401
414
405
434
502
531
475
416
385
411
420
379
360
347
379
378
342
338
352
423
464
433
391
380
386
414
441
432
433
476
475
415
408
470
493
418
394
434
487
456
424
406
429
462
470
417
386
432
459
438
432
466
493
501
504
498
500
483
530
548
487
459
423
395
432
494
539
560
570
545
482
450
424
424
449
492
526
516
493
494
508
514
500
477
467
466
473
482
476
464
475
493
538
625
615
552
488
461
481
505
534
549
502
431
415
428
493
519
513
541
541
511
475
449
476
538
563
533
464
448
460
470
509
559
576
565
554
535
525
517
485
461
524
550
551
525
499
495
445
471
519
508
497
522
587
579
566
563
535
495
472
471
516
574
584
554
570
573
577
559
527
524
500
496
511
506
497
504
516
535
578
597
573
554
558
559
561
553
555
548
552
538
518
545
574
589
616
596
586
574
556
554
557
521
485
467
497
541
527
510
479
482
516
527
581
588
557
512
452
469
479
509
540
501
454
446
445
467
489
529
561
563
535
488
426
463
546
518
430
406
441
462
474
550
694
798
880
980
1023
1023
1023
1023
1023
1013
928
816
713
588
538
496
446
432
388
380
424
422
384
337
325
338
382
400
410
387
383
410
434
451
471
465
414
370
372
418
461
466
430
403
395
388
413
426
435
445
416
422
475
468
459
469
470
462
470
483
455
411
421
449
506
551
538
520
487
461
475
492
528
559
612
617
565
497
452
433
465
480
535
549
504
476
458
485
553
556
537
524
565
584
569
550
599
626
652
655
612
559
570
587
593
640
622
604
616
620
633
606
559
560
600
625
637
597
540
527
529
549
561
503
462
448
427
450
506
506
435
380
363
374
381
365
372
393
442
467
435
404
400
400
417
441
457
433
365
368
435
462
445
443
492
468
459
496
498
425
398
394
413
459
475
458
426
419
433
457
515
566
532
510
488
437
420
443
483
510
489
509
484
474
536
570
573
540
523
473
477
489
502
499
524
517
475
425
431
465
492
523
568
576
543
491
493
537
541
508
469
496
468
475
527
569
580
555
518
529
496
430
436
440
417
433
488
513
527
525
539
524
509
492
466
446
446
461
498
514
509
491
487
502
502
508
528
532
498
473
492
528
523
494
523
508
487
513
516
526
572
551
522
546
571
534
484
466
448
421
418
428
467
503
535
538
537
526
511
478
472
494
516
518
490
491
531
551
520
533
533
513
516
538
489
465
462
480
543
596
560
482
496
520
487
476
514
531
518
508
538
582
570
540
523
505
502
517
506
530
564
539
543
545
547
535
522
506
527
536
527
542
576
577
573
571
528
508
534
531
514
486
453
420
427
480
528
561
554
540
507
491
492
443
423
433
456
456
457
445
445
449
500
558
566
566
549
550
576
571
520
473
459
451
530
635
699
788
913
996
1023
1023
1023
1023
1023
939
829
737
672
576
486
451
449
426
429
438
488
513
453
401
369
365
332
315
362
375
384
405
390
401
447
483
500
503
472
423
402
425
429
424
473
516
482
471
477
474
467
434
393
384
421
403
402
456
520
542
532
501
536
550
535
548
563
546
530
530
547
575
575
554
524
519
484
474
503
506
512
519
531
517
515
548
559
587
584
572
594
590
585
607
605
581
581
604
612
597
593
613
634
661
654
604
569
593
614
605
587
583
605
627
591
587
585
541
505
499
506
478
495
529
495
448
416
417
429
421
452
463
455
418
400
363
354
375
412
453
440
391
360
327
321
352
410
414
419
437
443
402
402
425
416
411
421
402
435
440
452
448
442
420
416
434
445
457
471
462
478
500
463
415
404
438
472
466
450
472
490
486
449
431
464
509
530
523
498
477
493
487
476
512
537
496
466
472
465
496
510
485
498
522
502
474
496
526
538
530
518
525
523
532
536
495
500
535
568
542
524
521
519
525
518
489
494
506
520
551
532
504
484
486
464
470
527
560
526
532
553
529
520
503
483
489
516
548
571
550
531
563
583
575
517
508
506
444
441
487
526
530
503
490
498
469
480
505
481
431
451
518
547
550
539
534
551
536
487
485
481
483
522
528
504
496
527
555
510
509
519
510
544
520
490
473
480
462
448
482
493
494
504
515
510
496
492
502
475
471
531
567
566
559
578
558
522
487
525
592
611
594
564
540
571
592
531
488
544
560
511
468
456
448
461
496
511
459
432
483
545
521
474
412
396
432
447
470
494
474
526
522
495
540
542
543
538
476
469
467
499
529
501
472
425
435
402
384
418
499
654
806
896
926
976
1005
992
982
980
913
831
726
647
608
548
474
447
437
423
382
343
371
384
384
415
441
441
392
398
403
405
433
391
364
374
375
400
422
447
481
482
456
430
399
416
444
463
528
587
565
499
422
436
475
464
445
476
497
514
496
474
504
513
493
486
473
474
474
515
536
526
546
580
559
513
506
547
591
604
591
518
473
499
559
585
582
581
580
580
535
532
562
565
567
574
583
602
651
642
626
623
627
643
638
645
671
644
596
610
670
686
652
692
748
727
663
592
533
463
454
505
540
549
555
537
490
465
447
436
451
426
388
407
427
417
454
454
479
483
420
398
421
414
401
408
410
387
370
383
390
413
454
488
493
480
439
401
386
415
457
483
503
481
464
483
495
492
501
508
524
491
475
468
443
425
392
395
429
435
416
430
460
472
493
469
472
548
563
538
526
470
448
454
400
402
467
536
606
629
581
524
507
508
488
474
457
487
490
486
527
553
530
536
548
506
473
470
510
528
546
538
561
607
597
572
543
477
411
420
493
573
606
506
472
488
433
422
472
519
524
510
490
460
463
487
476
497
530
560
561
530
481
481
526
540
491
488
531
501
465
439
435
442
433
441
503
555
548
502
512
526
475
489
515
474
446
501
538
517
491
503
546
493
461
483
478
456
481
524
531
517
503
495
494
525
540
498
492
512
526
536
561
594
537
506
513
503
478
471
479
487
497
589
662
611
537
527
521
509
529
562
569
575
577
570
554
534
509
506
502
496
511
511
500
481
512
577
591
619
595
539
518
495
459
454
470
447
422
482
489
476
523
533
527
496
459
471
498
507
522
534
542
523
533
613
577
486
417
431
473
511
594
725
883
1008
1014
1023
1023
1023
1023
986
895
818
724
638
573
504
415
378
383
406
414
409
383
379
390
445
469
408
385
438
427
377
341
371
415
441
422
402
416
422
393
395
388
393
431
457
470
464
447
446
465
470
454
476
541
523
474
482
481
488
524
522
501
504
506
516
548
532
460
459
485
479
489
502
525
551
562
577
635
612
560
531
526
553
561
595
633
599
539
558
563
517
525
575
573
577
584
599
600
569
555
601
615
621
627
634
619
616
611
595
578
585
594
606
607
638
680
692
695
618
515
503
524
500
493
521
491
432
370
361
392
425
470
487
448
397
378
390
370
390
398
385
397
395
372
372
427
457
450
470
439
385
389
402
403
350
324
389
440
459
447
415
414
412
428
465
471
431
427
469
454
436
464
496
480
452
446
447
447
422
390
418
468
505
491
460
468
481
495
499
481
441
448
485
508
530
520
517
525
509
476
460
489
489
463
442
429
437
484
472
462
500
526
484
491
495
487
464
444
467
484
517
514
496
523
555
557
520
486
504
500
469
460
493
497
480
506
501
489
482
457
468
513
540
553
571
554
532
490
473
483
441
446
483
486
472
468
533
572
575
566
504
472
451
435
455
507
503
519
524
548
547
536
560
562
546
498
485
492
475
451
438
440
461
463
501
563
590
584
533
493
498
490
503
503
501
553
552
487
486
536
532
531
512
504
487
479
495
509
539
535
528
513
495
485
474
504
568
589
617
607
611
581
539
505
504
529
528
564
638
660
615
579
552
512
467
444
456
492
480
499
543
543
481
469
510
522
515
512
536
556
531
469
450
424
409
441
519
565
519
495
507
502
464
443
470
464
469
478
498
490
497
470
427
409
442
510
573
618
700
818
967
1023
1023
1023
1013
971
975
943
904
823
703
597
538
498
479
442
432
433
391
326
242
228
314
366
381
400
385
386
405
396
361
363
394
433
462
450
397
422
471
495
516
450
413
433
405
386
403
435
468
442
423
435
439
455
434
429
453
456
466
495
545
544
495
482
524
501
466
458
471
484
504
529
552
575
584
531
440
469
511
533
563
570
517
489
515
537
519
546
555
560
603
618
609
602
600
579
592
592
580
596
584
583
623
672
675
609
566
584
588
567
600
617
604
585
598
591
575
556
537
522
494
462
437
429
475
542
559
517
469
449
418
401
362
353
378
427
451
449
438
423
392
361
339
367
449
498
490
460
403
393
410
436
488
475
416
392
405
423
478
468
395
348
378
434
472
531
592
546
496
430
412
449
484
459
468
483
485
514
502
447
450
484
501
531
544
569
581
531
507
488
466
464
474
440
420
428
474
504
484
504
530
559
534
466
427
397
432
496
554
562
515
479
491
537
537
539
543
548
535
548
608
615
527
485
516
554
540
518
526
533
490
447
453
470
509
543
559
564
558
564
568
532
493
472
482
515
508
500
532
534
543
583
577
501
445
483
543
571
530
511
495
499
506
509
534
521
482
493
493
486
507
523
531
532
511
490
513
519
512
551
557
520
515
491
461
460
492
548
560
544
529
539
524
534
574
553
519
527
518
512
546
525
502
467
442
468
474
488
501
474
463
487
486
506
532
514
531
587
647
622
591
609
570
532
555
585
587
593
612
605
562
508
519
549
553
567
565
543
513
507
536
520
504
518
554
586
574
508
512
533
510
478
536
605
576
557
522
526
505
513
545
548
503
484
479
440
426
438
470
487
487
508
518
546
499
492
513
523
533
581
686
835
934
1002
1023
1023
1023
1023
949
879
861
828
761
641
490
391
339
309
334
384
430
469
431
345
324
357
344
338
358
363
360
395
445
484
457
399
394
411
416
427
401
382
394
448
510
495
479
464
421
441
451
425
443
483
479
503
468
426
449
487
513
509
478
440
428
436
497
543
536
517
467
438
438
462
457
490
537
566
576
574
537
495
502
539
544
533
527
528
550
555
593
615
617
589
607
598
569
548
515
509
565
626
642
600
591
620
645
632
600
590
587
624
652
639
613
619
639
613
589
559
490
467
498
550
545
490
442
406
399
421
434
441
454
456
408
354
376
419
412
421
422
403
428
419
383
393
411
431
471
493
475
481
493
428
358
338
380
425
431
432
434
399
395
393
415
432
428
437
463
448
410
399
428
455
483
499
516
521
511
473
453
454
459
454
434
405
403
418
434
436
458
472
454
468
499
503
486
444
454
460
434
424
456
521
540
486
464
466
476
505
494
502
481
458
493
516
526
504
465
448
484
500
437
377
410
473
487
498
504
493
457
458
479
491
507
526
514
511
504
476
441
453
512
551
571
586
541
508
469
454
498
494
459
457
462
469
472
490
487
474
467
479
529
552
560
524
505
494
504
498
485
462
439
481
529
524
506
482
474
541
573
527
506
502
469
449
473
478
457
468
496
518
531
516
494
509
533
514
501
504
528
554
582
608
602
589
611
590
606
591
541
522
520
521
505
494
529
530
523
528
523
505
515
485
502
516
476
407
402
443
453
450
479
564
546
493
464
449
478
523
542
538
498
462
484
485
522
558
512
488
512
521
490
445
424
450
463
463
499
580
649
739
849
947
1020
1023
1023
1000
944
836
740
659
588
538
492
430
380
363
322
322
405
471
480
462
468
426
384
392
386
399
393
389
429
475
477
465
426
376
348
365
407
443
493
520
503
464
419
421
453
466
475
452
462
485
508
516
500
457
467
516
532
516
502
478
487
510
534
551
544
496
475
480
452
474
527
544
531
501
478
459
479
505
548
556
571
587
587
547
537
558
572
575
579
611
664
678
625
599
623
620
614
631
648
619
583
610
635
609
616
634
618
606
601
561
543
559
596
603
577
546
525
512
533
545
535
516
478
454
461
491
487
482
475
472
447
418
405
409
417
459
451
418
399
376
367
400
430
445
448
441
423
424
476
512
500
492
450
414
432
459
479
471
478
489
500
473
425
430
482
507
524
505
475
453
459
484
455
454
477
484
508
519
517
496
486
501
513
536
537
533
527
497
461
475
489
546
573
554
503
485
502
543
556
590
560
483
445
465
459
448
474
526
553
554
551
568
572
541
497
473
494
522
512
504
512
515
491
511
513
487
463
493
534
525
516
513
509
505
531
531
541
534
538
572
582
544
520
543
516
531
579
582
523
489
472
491
514
509
515
510
494
505
520
536
561
515
501
524
539
508
503
514
527
521
485
501
515
528
528
518
512
534
580
602
585
560
551
566
571
536
515
540
569
575
557
529
536
502
498
557
585
597
619
628
639
630
606
589
579
547
525
486
472
520
563
606
645
603
547
508
493
442
442
486
494
490
484
496
497
495
490
506
526
540
566
536
500
486
470
437
459
513
514
483
509
560
545
496
501
524
474
420
412
476
566
662
780
906
976
990
1023
1023
1023
1023
992
895
770
648
577
547
520
469
432
421
411
387
362
349
364
404
423
405
348
326
330
354
379
410
449
459
423
398
382
402
444
474
444
406
394
429
445
393
439
496
482
492
466
416
373
409
438
452
469
484
450
436
480
509
491
486
481
481
481
524
565
546
503
471
464
463
458
454
462
476
486
500
532
559
560
547
528
532
521
539
540
506
510
543
568
550
563
586
586
583
574
578
593
597
623
641
646
597
597
637
596
580
596
616
603
590
565
517
519
539
541
543
521
494
483
509
531
564
529
447
406
396
414
448
445
439
453
455
437
440
460
458
451
412
384
372
390
436
437
416
390
376
426
477
512
486
430
415
451
491
489
459
459
462
452
459
459
419
413
485
503
478
465
513
519
470
474
502
528
504
463
432
441
465
472
505
539
556
581
600
579
539
497
489
516
526
499
491
494
494
497
515
554
523
464
454
462
490
508
502
531
528
482
483
519
565
571
530
497
514
514
520
535
512
493
544
573
537
503
502
523
506
505
476
486
513
521
516
543
557
520
490
504
535
498
467
487
526
548
581
598
578
526
479
478
510
527
508
471
479
489
509
528
503
467
481
515
546
551
501
469
466
462
526
581
559
496
469
489
526
590
617
607
533
438
399
452
503
495
469
466
453
484
533
518
466
427
439
497
511
493
508
518
519
518
526
533
547
565
567
570
535
501
509
484
486
504
547
569
526
489
485
493
488
500
522
515
475
459
477
533
530
482
473
505
498
438
433
452
440
462
486
490
470
435
420
416
435
453
492
538
535
478
464
508
527
499
458
413
387
412
466
482
503
545
642
763
892
1023
1023
1023
1023
1023
958
875
769
671
612
566
533
501
464
446
381
347
354
360
352
327
342
361
356
356
424
433
353
332
363
387
405
404
380
349
333
384
408
419
438
430
398
422
465
454
431
423
441
419
373
354
413
437
424
418
410
407
425
441
470
486
488
488
462
474
515
562
579
568
503
419
426
459
493
504
506
515
536
496
502
499
515
509
504
561
533
490
511
541
548
555
565
555
539
534
607
629
602
580
568
567
562
588
608
589
594
612
608
583
572
597
613
633
638
596
563
522
506
519
523
493
490
494
481
417
364
349
352
422
439
472
430
387
378
385
397
389
360
361
378
396
387
407
424
452
462
411
397
422
411
446
499
498
474
459
431
418
420
450
421
370
392
415
459
489
490
488
497
493
486
529
547
520
478
449
439
470
524
539
499
479
452
436
476
542
557
529
517
513
486
477
460
453
451
492
518
549
576
555
521
462
416
426
513
575
567
559
601
616
554
506
503
483
490
485
494
548
568
517
488
481
466
446
476
510
526
529
504
455
425
461
494
502
498
537
532
486
533
556
553
571
558
515
515
542
553
517
502
511
504
529
553
545
511
458
420
463
528
533
510
475
431
458
486
574
646
590
524
471
472
504
533
589
608
599
532
497
466
450
480
552
650
668
631
551
494
507
549
548
546
543
551
558
553
551
558
575
606
609
572
524
524
494
446
458
500
496
499
493
510
518
543
541
500
506
489
455
462
482
488
513
510
491
485
477
496
525
516
490
501
501
489
486
495
471
426
416
431
501
592
656
722
806
892
953
999
1023
1023
997
842
734
696
656
574
493
409
396
372
333
343
374
392
363
378
355
345
386
429
424
406
405
427
456
476
427
428
431
445
428
416
430
458
472
476
478
469
456
437
452
475
472
458
449
467
445
431
433
445
449
464
494
533
504
511
508
492
530
555
530
524
561
587
536
468
472
463
454
454
500
557
584
568
567
535
502
514
526
560
566
541
554
588
569
540
498
527
552
567
618
659
641
633
624
622
619
623
613
570
560
592
566
573
603
641
645
595
548
505
477
485
487
468
444
459
484
483
451
427
419
395
392
393
383
402
409
437
464
459
442
428
412
408
411
376
352
384
409
410
373
382
403
380
371
383
394
432
476
494
464
403
406
499
540
493
439
432
434
433
431
446
495
508
486
476
465
458
470
502
490
498
515
507
477
447
449
452
466
482
511
523
486
476
487
479
460
519
577
605
586
518
443
404
443
504
499
480
478
485
475
453
455
483
512
508
488
482
467
470
498
500
492
547
592
559
520
514
511
497
498
484
484
504
524
523
504
499
499
485
517
561
526
461
468
497
523
572
559
499
443
436
462
518
527
499
512
559
601
595
546
512
506
520
514
520
534
516
495
481
512
508
498
516
538
556
496
489
510
507
529
555
564
555
513
513
557
575
601
573
503
499
512
509
512
512
503
479
475
499
514
508
514
522
494
456
441
480
495
532
557
512
487
455
460
461
491
575
633
576
528
494
441
416
447
470
509
577
573
533
495
439
443
485
508
566
654
716
772
826
897
1023
1023
1023
991
940
846
720
629
585
528
461
423
401
376
399
417
442
440
455
463
484
478
440
372
366
401
432
407
426
468
441
441
426
461
514
524
509
452
432
443
482
536
566
556
525
478
489
519
511
505
485
472
498
513
500
520
552
536
528
554
570
573
552
532
547
586
591
543
551
603
675
683
628
587
580
600
631
642
606
618
626
594
576
598
582
568
580
618
631
635
672
701
689
645
596
575
593
605
626
630
650
665
644
660
679
635
594
582
572
589
603
589
556
553
578
566
533
483
426
404
416
462
484
453
394
373
407
454
444
412
421
399
340
353
388
405
380
373
408
398
370
357
396
419
385
333
337
382
407
398
408
423
401
404
421
408
371
389
406
375
372
368
375
412
414
409
395
408
433
403
352
337
363
371
384
395
404
407
377
366
399
428
424
429
445
459
451
432
392
392
424
470
480
449
409
401
430
520
534
479
408
393
418
433
449
457
454
443
441
437
432
456
468
506
527
521
488
473
479
492
493
466
475
483
486
517
523
495
462
466
478
475
484
497
522
518
473
427
413
434
461
491
493
516
565
551
525
513
521
520
536
550
534
569
543
500
468
486
558
618
605
538
477
464
443
434
457
481
461
448
461
480
527
557
567
570
497
491
527
590
623
638
612
581
549
539
529
547
583
587
621
617
581
536
473
457
501
509
520
564
528
496
466
454
457
495
563
593
530
499
501
486
455
486
527
526
503
524
526
543
524
512
543
575
567
512
477
496
514
519
514
523
549
518
445
456
473
489
582
703
797
852
915
1005
1023
977
945
903
837
770
707
673
626
558
497
459
447
415
402
414
394
357
370
427
425
387
388
419
433
447
462
467
458
424
386
375
362
404
436
448
447
443
468
487
458
452
481
466
452
450
461
456
460
500
505
486
447
467
489
517
503
534
541
523
463
406
444
500
478
499
559
567
522
477
447
484
507
516
563
576
567
580
579
577
579
553
547
559
573
580
568
546
531
526
567
621
650
656
666
596
542
573
621
610
623
669
674
611
564
549
572
587
580
598
581
543
540
567
556
553
563
543
492
488
460
475
504
498
469
438
414
402
429
423
404
396
397
410
418
399
391
410
434
487
472
472
492
464
470
462
449
452
486
500
510
498
462
462
487
463
416
396
396
423
453
475
503
501
471
460
452
454
497
550
558
517
458
440
429
463
497
536
528
509
520
511
499
494
500
505
504
513
560
533
511
465
430
443
481
516
511
515
528
552
540
517
490
501
514
496
499
506
502
524
529
533
565
567
542
539
515
494
493
496
504
491
435
467
534
538
545
556
535
514
528
499
472
532
557
573
564
550
524
545
591
575
557
523
504
492
486
482
500
498
500
533
542
538
521
511
514
523
482
474
486
479
489
520
547
567
570
551
512
508
490
493
487
464
486
493
513
541
536
525
542
550
554
550
524
493
472
482
492
513
510
495
492
505
551
563
520
518
507
501
506
455
413
464
499
492
511
533
550
532
517
558
572
583
598
562
558
575
545
522
501
523
538
527
503
499
498
511
534
536
514
515
497
479
449
413
438
463
481
506
510
527
552
537
475
438
479
508
504
483
466
473
497
516
505
499
499
516
554
576
585
505
444
436
439
436
460
472
546
672
776
834
896
993
1002
993
1003
990
933
863
789
707
636
577
518
476
443
407
392
387
378
373
369
416
436
414
437
433
398
369
372
388
387
394
420
422
408
399
400
403
401
422
461
497
515
499
485
483
461
433
416
417
428
488
529
505
454
432
436
470
488
538
562
544
470
442
458
460
490
537
561
586
591
528
466
470
464
433
433
465
532
587
598
591
571
533
502
509
516
535
557
557
539
549
563
568
555
543
590
621
640
646
604
577
536
575
589
545
558
547
552
585
603
610
605
598
592
582
561
539
554
572
536
528
524
479
451
452
457
510
534
533
509
457
419
429
452
459
455
436
437
432
412
396
426
483
506
464
457
431
400
436
499
527
508
465
437
468
504
479
469
486
490
491
471
481
495
525
535
530
517
500
516
502
473
479
498
478
448
473
499
518
543
533
503
503
488
471
508
563
543
478
489
463
420
461
528
541
524
510
526
506
479
491
501
512
538
553
528
545
537
497
508
501
450
436
500
522
481
486
497
513
541
543
522
474
483
528
533
586
573
521
483
492
519
547
548
541
514
521
527
514
521
536
503
478
478
527
546
550
551
495
460
476
506
542
575
549
499
488
526
533
526
538
563
589
607
589
568
562
557
557
510
472
470
470
515
564
587
577
575
547
508
500
521
516
513
535
520
504
513
492
507
549
559
565
582
555
492
500
513
500
458
495
574
587
581
585
605
559
494
491
515
532
515
497
525
513
471
468
458
465
507
544
559
528
502
531
543
579
596
557
519
491
519
597
625
589
536
508
471
452
476
483
478
511
533
536
573
581
525
498
520
523
488
474
490
512
546
575
580
596
599
591
549
545
553
548
520
523
525
514
522
512
514
560
575
552
486
420
425
457
516
526
523
510
487
473
456
473
486
487
492
493
480
487
503
505
485
472
515
551
533
498
503
518
529
526
508
482
442
424
410
425
507
590
712
818
897
946
994
1023
1023
1006
921
856
790
691
619
564
536
500
484
464
449
453
423
367
342
365
398
406
374
400
438
432
403
369
392
430
468
489
421
387
422
452
427
416
416
403
407
411
420
463
477
465
470
488
464
433
430
458
496
498
492
469
491
487
450
423
424
434
411
459
509
548
548
517
523
528
516
513
500
481
470
453
468
490
479
486
504
515
498
483
483
520
545
514
520
548
573
599
592
540
508
504
504
526
555
551
554
546
526
532
552
567
588
607
611
607
560
541
547
556
543
532
510
484
475
455
454
483
510
511
493
468
449
452
421
409
451
477
455
462
462
437
423
428
424
397
413
408
395
414
471
473
447
481
473
463
447
449
429
400
414
451
497
530
511
491
524
527
518
529
516
474
468
486
467
486
493
511
543
517
467
409
436
500
498
515
528
521
502
472
468
501
476
493
513
529
554
559
523
475
489
483
489
490
477
459
457
480
477
495
512
486
450
473
545
531
509
506
533
518
515
520
486
497
544
550
520
534
555
557
514
489
479
494
479
476
494
524
538
525
502
465
493
510
524
515
520
534
543
552
549
546
552
534
515
487
448
458
500
541
538
523
506
498
501
509
509
532
545
498
439
453
458
458
523
592
576
531
493
461
473
519
545
528
506
505
510
507
512
519
529
561
570
516
510
520
525
515
505
499
488
466
493
497
489
508
505
484
462
468
538
590
589
531
500
506
498
548
569
520
458
453
493
519
538
546
540
528
557
588
556
497
471
478
496
521
524
511
503
520
522
512
522
498
460
483
539
575
559
519
495
501
528
556
571
540
507
503
511
511
524
547
548
562
539
511
495
490
526
536
501
504
524
559
592
589
574
565
531
508
508
509
541
577
568
553
554
552
553
564
528
506
485
485
517
509
470
465
500
489
464
460
474
520
535
518
491
482
470
500
520
506
461
479
501
495
462
480
546
580
554
560
525
457
432
468
483
490
537
596
669
782
904
973
1019
1023
1017
959
917
875
777
673
620
589
510
429
397
415
439
430
405
418
449
441
414
400
406
440
439
428
389
376
390
359
384
441
443
462
456
479
518
477
437
432
411
416
445
448
460
450
457
476
481
483
499
498
492
484
495
542
543
497
498
476
468
486
465
437
480
517
509
482
501
513
505
520
545
527
511
538
593
591
510
489
482
486
502
502
523
545
567
588
640
656
631
627
587
557
514
521
581
610
594
579
576
558
569
600
621
600
582
560
557
558
586
607
610
578
544
546
532
520
544
558
546
502
495
491
484
468
445
460
462
463
441
426
432
421
401
394
393
439
446
410
428
444
452
437
437
445
429
412
406
423
456
468
453
452
453
470
496
511
493
494
468
458
472
471
488
484
463
470
500
497
474
447
455
464
473
474
502
506
512
508
471
450
475
513
528
543
548
547
531
493
473
450
450
464
501
520
528
502
515
558
550
530
519
524
536
533
500
491
515
504
470
454
487
506
520
525
515
509
495
525
551
518
502
476
501
553
523
518
498
483
497
498
504
533
555
543
527
497
485
499
537
526
541
550
524
514
519
520
529
523
519
518
511
520
536
504
475
474
454
454
487
504
498
513
541
513
527
558
553
531
515
530
574
591
536
482
447
483
491
522
569
575
527
523
551
531
528
559
559
525
515
493
488
462
492
531
538
516
494
546
541
496
492
519
531
528
515
513
503
498
541
573
564
556
519
494
467
468
479
523
581
620
573
517
501
520
516
507
473
530
574
533
549
559
541
524
550
534
486
461
484
483
498
547
590
579
536
515
540
582
594
578
586
541
501
526
555
577
546
573
610
602
593
589
584
609
621
589
545
534
501
485
462
450
454
510
526
507
483
483
477
492
516
496
485
482
475
490
525
523
525
520
515
507
515
501
508
552
583
567
553
507
493
487
446
452
491
508
502
527
596
712
825
898
953
1023
1023
1023
1003
891
816
799
751
660
579
516
484
448
428
428
432
437
457
436
431
429
464
500
469
454
429
425
433
442
457
441
445
525
570
517
460
433
440
451
481
493
506
496
499
514
488
451
412
441
457
453
494
500
494
450
437
468
466
453
455
480
551
560
536
523
522
531
533
528
543
493
494
474
529
592
563
530
507
561
594
562
541
536
528
520
500
480
501
523
552
596
583
558
543
563
577
577
582
572
573
602
598
583
587
607
627
624
587
565
582
626
629
598
555
560
538
509
505
530
518
493
461
448
467
446
416
390
393
376
355
382
399
407
432
438
433
416
428
397
391
427
425
428
435
432
453
442
440
471
495
487
452
450
466
443
390
383
417
431
430
436
448
461
459
414
399
450
499
521
489
478
504
506
468
441
444
459
500
507
475
462
465
482
488
507
519
491
474
446
451
499
545
555
543
543
525
528
491
465
470
453
432
442
455
445
489
557
542
546
525
477
448
460
484
489
459
398
425
467
483
489
506
547
575
545
543
512
465
457
464
497
526
522
508
492
472
462
468
488
532
562
563
545
490
457
472
493
483
483
486
461
481
517
529
518
527
531
545
546
532
537
564
578
584
560
538
550
536
551
538
523
540
581
565
542
520
479
514
588
640
616
608
645
665
642
605
592
577
585
600
584
603
578
564
596
622
634
667
664
598
548
527
554
606
642
640
657
636
630
669
693
663
616
584
580
538
536
584
619
619
601
626
620
624
587
567
538
533
559
578
561
501
480
545
591
562
547
574
563
541
551
560
535
508
519
538
558
550
505
481
478
464
488
520
490
456
522
596
588
522
439
400
383
398
402
384
401
462
497
467
426
439
460
452
401
351
370
408
405
384
414
426
412
399
369
377
385
383
403
427
450
472
532
636
737
838
931
976
979
980
991
968
869
701
593
568
513
426
378
325
294
239
214
238
256
265
283
306
340
335
329
284
259
288
329
332
334
354
383
387
369
327
343
368
341
320
315
285
275
287
310
349
375
355
346
327
341
340
351
379
375
399
398
346
301
310
290
313
353
376
388
397
390
401
475
526
430
335
336
375
389
422
449
439
455
459
468
451
459
536
576
546
516
498
532
600
603
568
528
482
517
548
542
556
578
614
606
600
586
579
600
623
640
613
578
583
602
600
570
603
644
608
587
580
604
597
594
519
459
449
436
445
491
517
500
466
423
399
410
418
451
468
452
433
420
427
452
438
449
470
472
494
560
548
492
435
404
407
438
489
525
523
493
491
481
502
557
540
491
460
464
501
482
477
486
491
488
497
511
488
491
474
466
494
508
504
511
532
521
494
514
534
520
528
568
599
569
503
488
497
481
540
585
552
543
523
472
458
509
534
527
552
534
513
482
473
509
523
505
515
543
530
478
465
515
540
555
575
564
532
548
555
503
485
489
512
556
553
506
526
546
525
531
537
542
567
550
527
528
539
530
554
579
578
544
509
513
552
530
519
567
562
539
551
535
519
524
551
570
541
527
504
496
561
620
597
567
593
597
563
559
549
518
514
565
538
512
535
520
495
511
533
514
505
554
611
609
571
540
526
508
526
549
575
565
555
528
542
533
525
518
510
518
525
558
569
559
561
542
555
573
558
562
575
545
501
518
563
592
607
592
594
591
572
570
567
539
544
544
552
561
579
547
532
571
587
532
479
475
452
459
520
543
511
468
417
423
449
482
517
471
421
421
439
496
516
542
527
535
550
550
518
495
519
538
507
461
429
380
369
391
454
492
539
638
777
907
983
999
1023
1023
1023
1023
987
893
794
671
562
498
504
478
401
389
388
379
399
374
324
291
292
309
353
369
355
349
361
382
387
404
388
388
382
415
489
473
388
330
313
361
407
409
387
366
367
386
405
452
518
524
473
427
418
423
423
441
463
476
472
435
404
444
460
451
464
491
518
510
521
552
517
444
449
444
434
439
460
500
561
516
498
518
482
489
577
616
589
541
507
505
516
484
455
448
454
477
530
562
565
583
592
628
629
579
538
512
503
501
539
570
560
529
501
537
590
598
563
541
500
469
474
466
425
394
373
332
327
334
339
337
335
357
362
355
382
416
428
374
331
332
364
391
399
382
373
366
354
359
403
415
390
377
417
442
412
381
349
355
354
347
358
386
394
402
404
410
426
442
452
482
505
487
451
426
422
441
457
448
450
422
388
416
462
460
432
394
415
469
499
510
527
485
442
434
417
403
390
405
472
535
522
461
423
421
436
470
501
500
455
409
438
490
489
484
481
487
483
457
432
443
488
538
538
504
499
540
551
531
510
503
503
487
459
454
485
514
502
503
510
497
492
489
496
503
462
453
475
484
498
488
488
501
527
540
532
493
474
545
581
529
466
431
455
519
521
503
471
466
528
565
564
531
493
462
441
431
457
495
531
542
519
499
483
482
470
520
561
544
525
506
543
602
638
606
525
495
542
607
630
629
601
587
584
573
556
572
604
634
628
628
628
622
576
559
559
535
510
509
516
533
538
525
500
473
483
526
571
544
488
483
480
478
478
512
524
537
500
450
440
470
486
482
486
496
480
459
492
518
514
510
519
509
472
462
478
501
561
716
876
969
1023
1023
1023
1023
1023
1023
986
863
728
618
532
455
399
401
405
396
379
352
327
343
349
343
329
366
383
361
358
372
362
316
320
367
412
452
445
398
384
402
415
404
389
378
404
414
454
497
489
463
440
432
414
404
462
522
506
450
415
411
427
457
496
505
507
521
519
494
454
448
541
619
576
486
455
461
448
506
540
549
551
559
569
561
569
546
553
570
558
550
561
587
604
574
543
597
650
647
593
591
603
606
614
624
628
621
617
578
526
527
559
597
641
644
619
593
551
523
556
572
561
526
504
533
509
440
399
430
450
407
395
425
427
398
376
350
360
418
422
379
348
351
370
395
399
386
400
428
438
429
446
483
475
458
447
495
534
545
525
493
486
460
426
457
503
508
469
467
476
470
457
474
488
487
509
517
535
526
495
482
474
489
512
538
510
509
494
461
466
486
498
537
568
558
533
522
506
514
491
452
440
456
490
474
463
458
489
546
522
503
487
506
567
577
515
482
465
467
466
473
469
474
491
551
584
562
524
476
448
449
497
508
509
497
526
540
513
482
474
494
530
553
541
502
467
450
438
456
478
482
474
484
496
539
526
480
481
530
552
531
520
476
486
533
547
508
484
462
460
463
481
534
550
523
507
524
522
517
528
493
479
466
435
468
533
548
526
522
570
593
538
486
488
498
543
561
558
566
575
604
606
583
597
566
494
509
526
545
559
555
550
547
524
489
443
440
451
455
434
474
521
509
502
524
512
490
496
520
526
488
466
473
515
558
519
463
477
492
496
463
475
504
525
532
512
474
462
463
525
622
707
842
959
994
1023
1023
1023
1023
1023
969
840
746
677
595
485
414
387
406
375
338
343
360
406
427
410
409
412
373
354
358
382
372
386
426
420
444
484
475
423
386
392
394
410
433
438
445
453
438
442
473
461
472
497
507
512
470
422
438
472
488
492
489
498
498
465
499
541
502
464
471
469
447
459
512
557
545
511
500
483
502
551
614
594
553
523
509
531
577
631
650
609
571
560
573
582
579
589
627
626
622
629
642
622
585
602
646
633
633
588
563
547
565
623
642
616
594
581
592
583
548
518
535
569
547
479
426
408
413
414
416
385
385
395
413
429
437
402
374
386
385
382
381
397
388
364
411
450
440
424
445
437
406
405
417
416
422
425
413
406
395
428
476
478
422
416
438
436
428
438
456
468
454
459
466
486
493
476
473
429
419
445
465
459
461
479
497
499
468
443
441
460
498
509
514
505
488
478
476
489
460
481
536
524
487
483
491
483
446
449
497
557
565
526
485
457
463
509
524
528
485
444
454
479
486
487
508
528
517
490
473
489
528
509
507
538
540
497
514
516
505
564
575
565
529
479
470
500
510
514
515
512
490
469
465
479
509
527
530
514
496
489
528
549
548
534
522
504
536
546
538
556
535
544
558
556
532
458
453
522
549
543
535
543
538
538
540
544
559
598
594
583
551
526
540
533
523
520
560
583
561
573
593
601
631
614
564
574
543
479
449
444
459
498
506
463
444
467
483
505
509
483
458
477
493
481
492
499
522
557
515
467
466
468
482
521
554
553
538
508
494
485
445
432
467
599
727
829
932
1023
1023
1023
1023
1023
1023
1023
929
772
641
573
531
464
415
412
399
383
410
408
406
447
457
448
424
389
363
363
358
384
414
405
435
428
457
488
440
441
452
429
428
460
493
469
448
479
486
468
479
468
467
489
500
513
485
476
505
552
569
526
481
457
454
481
481
498
511
499
512
515
504
518
562
576
541
537
569
566
586
598
555
540
535
552
591
609
641
660
634
617
623
593
579
594
593
590
598
595
609
623
628
612
604
641
671
658
648
648
641
697
709
675
635
616
574
567
558
559
614
614
576
492
474
510
507
480
455
421
409
419
414
412
408
411
398
384
371
366
383
417
404
425
468
488
446
384
354
379
438
454
440
448
451
450
457
475
478
483
452
436
443
471
460
429
423
444
457
446
479
527
534
493
462
471
466
462
469
470
512
538
533
515
503
516
526
501
436
433
450
496
532
541
496
489
523
518
544
560
509
477
454
441
476
500
483
477
507
534
545
548
541
547
540
529
518
504
497
523
546
512
492
460
450
483
506
492
482
487
507
522
506
497
528
533
488
461
456
482
527
547
509
485
505
527
520
529
536
508
497
522
551
549
550
527
515
521
524
508
505
498
491
500
514
559
527
513
510
528
547
516
491
496
512
502
515
553
553
518
528
551
534
540
571
573
571
556
561
590
622
602
557
543
584
595
553
556
593
586
572
534
497
515
543
540
537
518
476
454
445
479
496
500
478
477
484
480
480
490
510
505
490
499
502
508
510
544
565
528
497
468
479
479
484
495
526
521
498
479
462
423
422
482
535
616
754
891
1023
1023
1023
1023
1023
1023
972
869
776
738
704
607
518
436
388
395
410
378
364
353
388
422
412
392
386
390
369
362
375
372
338
330
392
440
442
427
420
432
463
470
448
452
448
444
467
463
455
463
466
489
518
487
465
467
460
454
469
466
457
449
445
456
456
467
510
529
525
534
524
507
506
520
525
539
519
510
554
559
524
531
557
603
587
586
580
558
592
632
585
544
531
534
520
556
589
601
607
620
640
634
649
633
613
626
652
653
620
611
641
677
641
604
572
549
558
582
599
599
593
581
533
448
433
449
438
416
434
414
373
364
382
398
415
422
383
384
403
375
341
358
355
341
361
395
408
417
432
430
437
451
449
441
448
440
456
481
462
469
454
444
454
498
511
489
429
402
367
387
447
479
462
463
501
492
450
436
454
482
507
524
499
467
455
464
503
516
505
496
488
494
477
471
492
513
492
496
492
485
465
481
499
500
484
485
491
479
473
488
480
467
497
515
513
501
480
503
546
545
513
448
463
497
482
483
483
460
478
536
521
480
478
503
500
486
480
505
547
575
544
481
479
504
498
495
486
478
480
493
545
549
521
528
534
502
464
471
514
540
524
486
502
523
537
530
528
544
539
547
529
516
497
488
536
555
505
477
475
459
485
499
533
569
559
558
557
540
517
519
541
576
599
601
584
576
566
563
547
526
510
528
547
579
593
581
573
562
539
515
500
469
440
443
448
465
494
492
498
489
438
428
450
480
527
568
531
482
437
463
525
536
531
529
519
477
456
456
489
493
504
486
461
468
462
440
480
531
606
753
861
931
1015
1023
1023
1023
1023
1023
1011
884
750
642
539
486
471
423
379
355
354
371
370
360
377
427
434
398
365
354
316
333
398
404
357
337
355
426
438
431
458
477
460
430
391
387
448
461
424
403
440
465
456
479
503
486
464
471
510
508
453
433
459
472
464
470
488
481
494
547
558
536
488
493
500
498
493
498
535
556
574
602
601
577
562
555
571
566
548
553
554
553
559
554
576
588
613
683
702
669
582
549
544
562
598
652
669
614
602
621
621
581
601
641
644
605
543
508
518
521
534
561
549
494
418
408
413
433
436
439
423
382
390
425
441
445
383
370
382
389
380
405
417
408
414
406
388
425
459
468
397
377
361
394
461
454
432
422
430
454
503
488
461
428
423
442
454
454
455
483
490
439
439
503
508
532
547
548
492
449
373
363
419
443
495
548
534
510
477
461
501
517
516
511
469
479
515
514
510
522
486
479
486
515
489
453
478
522
547
543
512
480
497
496
485
482
461
463
477
491
481
508
544
547
525
540
512
488
499
516
501
508
519
547
537
535
525
505
480
475
484
497
514
537
529
477
442
450
465
525
545
520
485
478
492
536
574
554
555
511
479
505
526
538
534
521
495
484
496
518
516
506
513
514
524
528
521
548
595
597
591
573
521
514
538
564
526
480
467
474
525
557
543
521
507
518
521
538
514
436
369
376
408
452
472
527
569
554
513
492
461
435
438
441
455
521
541
491
432
414
442
497
526
518
477
448
460
464
464
496
548
632
702
723
778
919
1023
1023
1023
1023
916
777
683
611
520
427
391
333
328
341
389
417
428
440
438
433
424
419
392
363
390
431
454
420
378
376
318
318
378
426
418
447
473
460
445
423
430
460
470
472
460
454
458
494
506
487
446
457
478
507
533
515
531
499
451
455
435
442
480
488
472
480
517
543
549
546
537
512
473
487
554
553
559
576
591
582
547
505
498
533
564
604
637
619
578
561
570
612
597
581
591
622
665
649
600
608
661
628
581
587
588
594
615
614
604
599
571
561
548
545
544
554
517
463
451
456
484
503
459
409
381
358
336
371
413
432
459
465
395
322
292
283
341
407
443
412
388
365
337
345
364
392
438
434
392
401
478
501
466
454
477
475
438
425
439
420
423
431
428
423
429
490
487
468
463
457
483
513
510
494
467
459
485
495
474
456
488
512
513
521
507
499
537
519
492
471
453
445
454
488
522
535
467
453
482
543
552
505
503
528
520
496
512
556
543
529
497
450
464
520
535
488
433
453
475
500
495
487
480
480
452
506
539
537
505
510
550
582
599
613
578
519
484
485
473
462
461
517
544
552
542
519
486
463
462
481
496
531
558
566
552
556
534
560
629
588
489
454
532
597
596
576
544
517
525
550
565
583
563
494
464
503
503
478
463
474
475
462
464
462
483
506
574
607
549
478
443
440
462
469
459
443
464
445
430
452
469
526
550
541
516
527
524
493
450
400
371
377
428
488
537
588
691
811
897
949
1002
1004
992
948
852
763
700
659
581
497
425
363
336
315
320
384
405
400
348
348
362
394
393
381
429
453
412
421
448
477
459
435
442
456
461
458
441
467
487
463
446
460
470
497
479
462
486
498
464
457
508
515
443
453
491
469
453
504
550
520
499
530
534
516
512
535
522
506
498
509
499
513
530
541
566
577
542
514
531
530
551
568
560
577
613
567
539
552
563
543
551
598
614
606
600
576
566
589
633
649
634
614
627
654
657
654
644
607
549
555
621
647
574
511
466
455
482
481
419
396
433
465
464
436
421
428
376
365
405
429
402
404
398
359
390
430
469
476
431
371
369
359
348
402
455
452
410
401
398
405
374
375
382
387
388
421
447
463
464
466
485
496
511
482
420
403
439
437
425
449
452
442
456
489
472
478
505
485
509
461
421
407
371
374
420
466
527
523
461
446
437
465
502
510
509
505
507
506
513
514
487
450
432
417
417
435
467
487
489
503
491
490
445
450
447
450
446
471
471
507
499
480
479
444
414
480
514
499
507
513
481
466
484
508
515
524
512
512
505
478
434
421
434
437
448
479
527
526
494
465
446
481
498
473
448
442
459
506
558
586
595
614
607
575
556
519
469
450
456
476
450
496
581
580
546
516
479
453
416
401
414
421
428
445
472
462
485
489
497
538
523
458
438
428
425
420
442
449
474
470
489
483
453
454
470
493
529
532
453
425
402
402
430
442
505
583
685
811
902
969
1006
997
941
849
721
670
647
569
508
495
442
414
390
355
320
353
415
428
422
442
450
388
371
424
462
438
396
373
410
428
444
485
519
487
439
438
426
397
394
378
370
388
430
499
496
422
403
456
521
503
477
483
464
469
482
510
527
527
524
511
531
524
496
477
502
482
457
480
516
543
563
548
511
477
467
482
460
474
521
557
607
613
585
544
535
546
572
572
572
622
631
601
573
562
602
612
588
600
591
593
577
575
563
571
618
628
575
517
514
538
559
569
556
555
519
495
452
472
523
491
455
452
477
432
372
387
408
418
442
462
441
396
356
355
389
414
390
408
405
392
398
406
409
421
427
459
493
488
467
428
413
411
397
370
390
466
469
457
504
516
490
458
440
453
407
361
411
482
482
485
483
473
507
501
484
507
506
513
519
525
521
485
446
451
481
517
560
551
483
474
489
498
521
534
512
515
516
477
471
491
534
543
524
525
519
515
508
517
542
577
594
559
516
524
523
503
530
566
541
507
578
554
496
502
526
536
527
510
490
472
470
486
515
530
542
564
597
618
617
586
582
575
545
470
471
511
522
497
509
531
521
505
514
542
557
585
586
564
550
551
589
545
526
532
557
619
646
628
603
593
550
518
518
540
507
489
496
513
506
532
556
571
555
519
548
550
556
516
474
488
506
515
495
509
543
528
522
492
491
507
546
555
542
531
501
513
524
511
500
514
515
489
466
462
472
468
505
617
733
808
838
898
969
998
1023
1022
961
882
799
725
690
667
605
535
477
423
406
417
409
399
396
376
382
445
503
501
489
467
456
484
507
477
465
499
529
514
493
467
478
481
487
509
552
532
516
499
473
452
484
559
565
567
588
570
528
467
433
450
503
529
538
539
523
543
585
622
602
555
532
529
550
559
568
576
563
552
594
621
608
571
528
501
487
557
630
573
565
608
642
646
588
541
555
611
626
592
599
632
633
662
676
632
610
642
644
605
597
592
607
604
622
607
581
615
643
613
562
518
451
441
501
506
542
526
477
425
430
455
473
484
466
436
432
435
454
461
453
449
422
418
391
356
396
440
472
488
513
529
488
476
508
473
461
483
505
503
531
500
442
418
444
487
501
488
476
466
515
545
522
478
474
508
534
545
529
522
572
579
531
519
511
539
547
529
531
579
625
572
504
508
513
497
489
525
568
576
552
542
536
536
533
540
516
492
506
522
542
568
578
554
526
509
503
544
539
520
529
564
601
605
578
531
529
526
533
544
560
563
569
540
518
481
493
530
544
574
584
544
532
538
539
517
515
538
545
517
507
538
557
619
648
620
545
488
502
574
605
565
501
478
497
506
538
554
570
587
585
536
479
459
464
496
523
525
507
531
614
643
641
631
630
634
608
609
563
511
477
474
543
575
582
582
609
624
588
549
518
535
519
515
510
517
527
530
554
542
541
549
509
503
487
489
520
541
549
556
544
530
530
564
570
516
471
499
523
476
477
489
506
552
578
543
483
462
479
529
573
637
706
765
815
886
955
1023
1023
1023
974
936
885
800
731
660
595
540
472
408
380
377
356
367
425
453
455
440
428
397
385
420
438
438
423
414
439
470
493
500
473
498
480
453
435
422
454
486
487
492
488
465
404
397
457
493
483
471
476
530
577
532
494
492
475
462
480
466
440
467
510
546
543
569
596
593
552
534
532
480
495
557
586
548
484
463
491
521
523
538
579
574
559
550
552
559
552
568
561
550
563
604
606
604
624
615
572
564
563
574
571
590
618
654
634
546
545
572
596
609
569
536
509
503
499
461
446
455
447
431
428
434
433
426
445
477
485
416
374
396
406
432
447
449
473
507
484
434
445
448
439
455
468
485
476
426
425
491
494
446
424
428
431
466
478
464
452
469
464
460
480
488
491
500
508
511
517
492
466
472
475
490
541
517
510
534
505
441
406
439
467
509
525
538
523
489
491
465
466
472
492
515
528
539
530
512
490
506
540
547
528
530
517
530
516
497
484
499
506
530
553
538
503
487
503
506
505
493
487
533
575
551
527
504
514
513
534
548
521
479
450
472
509
515
494
470
491
502
503
527
558
545
521
514
506
498
512
537
517
485
489
504
520
537
502
491
515
518
502
520
520
507
484
506
490
461
458
464
502
557
536
517
513
515
503
491
502
525
538
555
563
541
513
508
535
586
589
540
481
461
465
472
484
476
471
524
567
527
499
494
520
506
510
522
532
535
526
514
530
538
555
540
491
470
492
546
559
553
530
520
496
484
482
487
508
562
562
506
492
515
482
447
481
509
534
560
549
527
529
534
532
538
549
566
585
585
578
556
538
544
539
507
483
504
494
491
493
475
501
481
487
514
498
485
502
484
459
464
469
464
458
454
478
497
498
528
536
550
558
542
509
477
471
490
516
521
527
508
469
439
418
434
446
486
540
582
627
681
791
892
956
986
1002
992
1005
953
870
807
764
667
596
548
446
407
428
435
451
465
426
391
368
373
400
396
382
383
387
420
446
421
388
404
416
418
416
430
446
439
424
459
510
520
472
436
432
445
470
470
468
455
440
455
459
460
488
487
485
511
491
473
458
477
497
478
469
451
487
536
550
559
588
567
526
520
491
499
528
481
493
513
543
557
557
563
544
550
580
573
537
499
483
525
574
568
568
568
552
573
572
566
533
518
583
613
627
664
630
601
592
590
611
610
590
584
574
531
527
534
544
552
559
517
484
453
440
463
488
461
456
488
494
475
443
440
472
478
469
452
444
446
426
442
507
525
481
426
438
486
478
445
410
419
462
480
457
481
483
473
496
500
473
462
492
488
477
463
446
461
475
490
515
541
518
502
506
504
492
482
465
477
468
453
475
496
527
571
551
503
493
487
485
506
505
490
467
468
471
454
451
480
514
498
456
481
520
531
535
526
501
457
480
508
501
495
526
563
546
493
495
482
463
481
502
494
484
460
449
490
544
558
495
484
504
496
487
487
473
481
507
551
527
494
487
504
510
510
540
539
495
445
469
512
523
480
455
490
513
493
477
500
528
521
509
496
486
498
491
484
498
542
558
546
519
469
460
452
491
529
533
510
506
501
501
479
459
454
455
460
448
460
469
478
494
478
502
528
487
460
487
510
518
507
489
476
470
459
480
518
516
504
490
507
524
519
492
488
479
460
512
488
455
463
448
432
458
496
482
476
504
521
531
547
511
486
506
516
488
448
441
432
448
464
493
518
508
473
480
462
477
505
529
511
496
492
499
490
478
461
447
456
482
503
497
521
587
590
548
526
534
535
551
518
485
516
521
511
515
531
502
455
456
494
529
535
508
476
470
448
447
481
485
500
479
437
431
457
513
521
509
469
440
449
476
502
515
511
505
475
446
461
482
501
519
510
513
515
524
488
429
393
405
436
492
592
717
820
936
1013
1023
1023
996
960
855
745
695
634
549
494
453
440
424
394
410
433
420
371
367
381
398
399
382
400
424
421
417
438
437
413
374
353
410
453
439
409
382
396
441
438
419
395
416
439
440
449
457
468
489
494
473
467
464
459
431
427
435
444
469
496
526
526
485
447
474
511
526
512
482
463
452
450
477
497
527
546
558
545
517
540
512
507
489
483
522
542
522
500
489
537
587
610
593
550
544
553
552
601
618
563
522
541
550
521
540
580
585
601
606
589
590
553
464
417
416
477
509
510
518
509
530
509
518
520
480
481
469
422
387
390
439
441
414
410
434
434
432
439
436
432
424
387
423
453
442
426
441
452
472
493
448
438
468
464
479
474
454
451
434
451
457
452
487
522
499
455
470
507
490
477
459
491
487
470
484
492
449
433
483
504
546
560
503
450
459
448
485
521
518
505
496
477
484
505
509
503
509
532
492
446
457
492
515
518
497
526
534
519
521
533
557
538
537
543
528
474
440
444
470
498
502
472
467
503
522
502
519
525
524
539
538
502
496
506
547
523
504
512
529
535
491
450
485
519
538
529
492
476
486
487
526
554
555
509
477
531
538
527
520
496
498
516
527
557
556
517
492
496
485
496
520
519
497
494
493
482
504
522
525
530
523
515
552
561
514
487
474
492
546
557
544
547
540
483
476
475
485
518
552
547
532
514
488
454
434
470
520
509
512
552
566
591
571
536
527
510
495
534
536
505
484
494
499
519
496
486
502
504
486
502
531
540
547
513
526
546
504
477
484
491
511
520
545
570
582
582
548
574
563
519
530
550
572
573
548
546
496
481
521
566
567
543
537
538
503
525
603
600
547
470
460
474
465
457
464
455
470
455
449
485
507
497
514
527
526
529
499
461
423
450
503
546
587
567
550
547
553
563
548
466
422
426
427
441
477
595
735
816
863
919
1004
1023
1023
990
848
760
697
619
573
556
490
442
431
434
412
391
407
438
418
406
445
431
382
349
360
368
347
374
390
384
411
454
476
475
478
473
452
463
495
510
501
486
430
375
402
405
435
443
460
472
493
499
467
460
451
452
453
433
449
477
486
487
492
521
524
504
534
532
524
549
560
517
467
440
453
467
522
573
595
561
534
527
553
548
516
514
520
529
569
592
573
540
529
530
574
622
640
648
665
634
573
541
541
559
571
602
588
561
540
532
582
579
568
574
568
544
527
525
498
492
492
486
448
410
405
428
428
403
436
460
493
471
407
390
409
405
385
434
471
409
367
379
399
452
500
518
492
449
414
426
441
437
400
412
437
441
453
467
451
455
497
540
485
411
386
452
534
568
607
597
501
436
418
438
445
468
482
496
468
452
461
480
472
471
488
494
488
504
500
514
497
492
495
523
525
501
519
516
500
508
512
492
472
482
521
551
538
497
493
512
520
514
496
455
437
437
472
472
480
507
518
520
548
552
538
547
559
529
497
475
493
519
530
509
513
589
618
567
513
494
485
460
473
463
477
496
558
588
581
541
510
484
487
484
499
485
470
515
551
592
582
525
510
505
521
540
565
577
523
470
483
494
496
497
526
559
546
522
523
512
522
557
550
523
487
479
474
473
477
509
508
507
490
489
519
540
529
516
479
478
514
506
498
487
488
492
476
472
501
531
552
535
514
497
491
493
473
489
524
527
517
517
508
497
503
515
527
524
536
500
487
508
542
571
564
510
532
549
487
479
538
552
551
567
579
574
548
533
552
547
551
564
578
550
509
499
483
504
502
476
495
487
468
469
456
455
463
452
474
520
495
461
460
471
480
509
517
525
506
494
501
505
489
527
550
521
497
518
472
433
469
520
538
593
644
701
800
878
925
986
1023
1023
1023
951
825
712
644
612
552
505
494
441
405
398
423
424
419
391
368
388
391
376
374
370
377
398
427
438
430
418
414
420
419
416
401
377
386
450
498
492
516
517
479
448
414
401
419
450
485
499
518
525
483
474
488
523
496
456
434
426
434
448
481
499
524
514
467
459
467
493
527
547
561
492
439
469
499
508
557
607
631
617
545
498
500
527
529
521
513
531
574
599
576
555
559
560
560
551
584
573
552
568
581
583
588
623
623
585
578
580
576
557
561
585
573
548
513
472
441
477
481
495
476
461
404
383
399
411
437
455
420
387
376
409
425
370
358
365
390
407
439
455
456
444
453
417
406
404
387
404
449
512
536
528
480
437
416
431
453
474
462
446
423
416
425
417
422
428
447
472
462
471
438
420
421
493
536
534
510
487
485
501
522
523
500
503
505
489
480
466
495
514
496
472
491
497
478
449
472
478
457
473
476
458
466
486
495
496
511
522
521
505
486
507
544
518
479
472
487
503
529
532
534
545
528
523
538
534
503
486
494
497
497
496
505
522
525
510
505
532
543
543
502
477
512
529
519
517
535
548
556
574
552
550
573
556
546
524
511
548
541
519
529
539
522
497
506
528
578
568
528
465
450
478
494
480
484
470
445
476
515
520
503
477
466
495
533
562
579
575
549
500
469
458
520
569
535
513
515
490
464
475
502
522
534
502
467
459
478
531
565
555
516
516
504
508
489
506
492
500
520
556
555
558
534
495
527
628
662
627
563
508
505
490
518
524
515
529
536
559
533
507
493
481
485
538
559
510
467
434
480
578
617
545
466
453
476
491
535
547
513
489
447
427
444
452
473
500
553
571
566
577
522
484
501
503
485
460
497
526
511
527
629
744
839
931
1015
1023
1023
1023
1023
1016
976
863
740
659
587
483
396
395
409
404
401
423
421
408
400
387
363
344
335
375
410
415
421
452
464
435
424
421
415
440
457
466
479
436
374
387
434
446
451
481
514
522
495
473
471
453
432
427
441
484
503
468
430
431
503
537
551
526
500
496
494
