1023
1023
1023
1023
1023
1023
1023
1023
1023
1023
1023
1023
1023
1023
1023
1023
1023
1023
1023
1023
1023
1023
1023
1023
1023
1023
1023
1023
1023
1023
1023
1023
1023
1023
1023
1023
1023
1023
1023
1023
1023
1023
1023
1023
1023
1023
1023
36
726
720
692
684
690
713
714
716
731
748
735
702
669
672
702
723
724
712
694
685
693
682
673
696
686
680
680
699
702
715
746
735
719
723
728
720
702
678
665
685
710
717
717
711
698
706
713
698
690
708
708
686
693
716
720
703
694
695
707
723
726
722
706
681
673
700
724
733
736
748
733
700
683
680
694
712
721
720
716
719
715
693
675
675
686
690
688
700
705
683
663
655
677
704
713
703
698
712
711
686
668
663
636
621
615
596
603
639
644
643
647
665
657
617
628
638
660
652
621
625
631
638
634
615
631
660
635
609
612
638
664
701
760
842
948
1023
1023
1023
1023
1023
1023
922
788
721
674
629
611
586
556
576
603
608
618
611
609
620
625
614
606
595
599
607
610
617
608
594
610
631
623
609
592
586
607
644
666
669
662
656
643
631
622
617
621
643
659
660
660
671
694
701
689
671
655
645
663
682
699
680
636
615
654
682
683
670
680
692
703
710
709
707
708
698
698
712
716
707
708
705
703
716
707
691
702
719
735
746
750
758
758
761
764
787
793
774
764
741
738
761
768
752
751
796
807
800
797
805
830
796
720
707
706
698
694
694
701
695
683
686
686
677
657
646
648
642
620
622
645
647
634
625
626
614
594
587
603
614
623
625
619
611
599
606
613
636
649
655
659
654
653
671
678
650
615
594
600
603
620
650
664
674
686
684
667
646
643
627
624
622
598
582
607
620
633
667
689
664
660
686
706
685
653
628
633
649
651
677
696
676
665
671
696
704
666
648
647
646
629
628
623
608
622
651
658
655
626
617
624
619
631
670
678
664
662
662
644
624
608
607
617
635
658
655
672
672
655
642
641
643
650
637
621
621
612
596
598
599
616
632
644
655
662
665
680
667
641
625
638
654
653
645
636
625
628
639
649
667
686
687
663
661
662
655
644
650
670
677
661
634
626
635
666
676
660
654
659
666
669
664
664
652
626
614
621
630
645
642
636
631
637
654
641
622
602
609
623
624
619
626
624
611
611
630
663
640
604
574
568
577
583
585
622
662
719
806
891
976
1023
1023
1023
1023
991
832
683
606
572
544
533
532
543
547
558
577
588
583
565
551
527
507
512
527
544
545
531
525
535
526
527
535
546
551
560
543
542
548
554
552
557
567
560
540
526
523
545
565
566
565
570
576
575
577
591
606
609
596
583
579
580
580
596
616
616
595
569
570
590
600
597
591
588
604
611
612
616
603
578
571
577
601
622
640
632
637
649
648
640
629
612
622
631
640
637
642
656
655
649
652
680
697
679
656
635
633
640
648
657
657
653
656
662
642
606
577
573
597
611
595
577
568
567
551
531
541
546
536
534
506
476
456
453
486
501
513
520
521
509
502
509
515
518
521
565
568
545
515
497
491
498
505
492
515
542
562
565
555
533
528
534
530
527
521
491
502
542
557
579
585
576
568
567
561
548
544
554
568
564
564
559
551
551
568
579
582
568
567
553
540
551
567
589
597
588
572
546
549
536
520
518
534
546
552
547
544
552
544
542
547
553
549
549
573
588
583
578
569
550
539
546
549
565
571
561
541
552
572
558
561
572
552
528
524
527
531
546
568
572
557
569
587
593
589
588
587
589
589
575
571
543
519
526
534
547
548
557
579
586
588
597
590
571
551
549
567
561
545
539
543
545
556
556
554
554
558
571
545
532
545
558
551
528
527
555
567
549
521
514
517
520
522
521
532
536
524
525
530
548
615
684
727
790
879
959
996
1007
987
916
804
663
557
492
453
453
468
472
467
471
465
469
493
484
463
472
491
514
533
532
523
501
494
497
491
500
515
497
468
453
464
484
506
522
518
510
501
519
548
553
541
531
517
493
487
492
506
523
542
554
557
530
527
535
543
544
544
546
543
542
543
537
525
516
538
555
564
569
566
568
568
550
544
555
560
547
531
528
545
572
591
587
584
587
591
608
622
634
625
595
581
596
595
594
595
591
589
596
612
626
639
644
636
628
607
600
600
580
564
565
555
550
542
533
512
498
519
521
508
501
526
539
528
493
462
458
464
472
485
478
472
469
461
472
486
490
486
485
506
508
484
466
469
470
480
506
520
509
496
480
471
491
510
544
538
528
538
529
498
500
512
522
517
516
524
535
524
496
488
496
526
540
530
548
567
543
502
475
474
506
518
516
523
526
549
563
557
536
528
539
533
544
553
550
557
564
546
523
533
570
559
516
506
530
527
537
538
523
510
519
529
524
514
521
529
526
524
524
512
514
516
518
526
539
528
527
536
534
546
545
540
554
556
550
531
514
525
546
542
521
501
507
521
546
556
548
542
529
522
516
509
523
552
575
580
566
561
562
557
550
538
543
542
539
543
550
534
527
524
503
499
485
489
496
504
494
497
517
526
516
523
527
522
524
504
493
497
517
525
506
462
447
461
476
532
602
644
704
786
873
948
987
994
956
866
712
563
503
464
452
459
469
464
458
471
475
473
449
431
445
468
457
427
423
432
440
465
490
484
453
443
446
454
453
446
454
460
464
480
489
497
456
435
451
473
485
490
481
480
498
494
486
496
506
500
488
488
495
495
501
522
528
518
497
485
486
494
502
512
526
525
506
516
533
527
518
539
571
579
542
524
514
502
518
549
557
553
550
551
563
583
587
582
577
581
562
565
579
605
631
622
604
598
600
597
587
584
581
588
596
584
562
540
527
535
546
547
541
539
522
502
494
472
462
469
488
485
467
458
472
481
477
463
480
486
488
473
454
443
449
467
482
490
496
486
481
484
473
468
471
475
476
478
482
464
460
473
484
496
510
503
501
510
512
497
505
504
495
505
508
506
498
500
510
510
507
510
512
531
531
536
538
540
534
526
507
498
506
522
536
532
530
529
528
541
551
527
515
528
535
550
557
528
506
510
518
535
536
519
493
496
532
548
550
546
542
535
525
524
526
516
529
545
562
586
583
562
543
517
515
540
539
531
553
568
560
545
548
562
581
570
547
544
557
556
544
554
576
573
573
573
577
570
562
574
591
612
618
599
580
568
577
609
614
603
597
598
585
567
573
592
603
599
593
584
600
618
632
639
638
629
618
594
578
587
597
607
601
602
612
589
590
619
634
622
603
606
607
597
584
580
600
614
618
611
615
606
603
596
590
588
579
579
600
632
686
742
815
896
963
1023
1023
1023
1023
1023
884
742
661
596
568
582
605
593
615
619
603
586
575
592
607
602
585
570
593
592
563
555
565
584
608
624
630
613
609
622
623
608
617
636
649
662
662
668
672
676
680
659
638
646
660
673
703
724
726
702
685
685
668
672
691
693
687
680
695
704
712
714
734
741
734
723
710
695
701
718
732
732
714
719
747
775
776
762
761
764
765
768
756
755
777
796
819
842
833
817
796
794
806
800
806
813
809
804
813
826
825
813
810
809
803
791
782
780
782
783
776
773
746
733
721
706
695
707
729
735
710
686
678
678
680
676
668
668
691
691
681
675
693
712
707
691
673
664
672
674
677
686
698
718
723
717
689
667
670
693
703
694
709
719
704
694
680
669
684
711
711
702
697
698
681
656
667
683
692
696
699
693
690
676
670
656
651
643
633
660
674
669
667
662
665
665
647
646
680
674
652
641
635
635
658
686
671
650
645
629
627
626
632
629
620
639
649
624
612
611
599
586
602
614
604
595
611
612
597
588
594
600
564
540
543
548
566
568
580
582
581
575
556
544
554
569
582
580
574
554
548
548
536
527
528
542
542
525
507
505
527
543
524
498
500
518
525
505
479
478
512
523
497
490
481
485
481
485
493
484
474
486
496
487
461
442
440
459
467
460
454
452
451
453
443
439
426
432
427
419
435
447
447
422
406
386
376
382
374
368
366
352
346
363
387
401
393
366
349
356
360
352
331
350
358
343
325
311
300
298
298
298
314
348
408
480
559
642
715
768
788
792
750
634
490
371
301
257
220
218
241
257
255
248
234
232
237
246
260
265
225
177
157
177
187
201
218
231
226
215
215
216
226
209
198
223
239
237
237
245
246
239
221
201
213
226
243
254
245
234
252
255
247
238
230
233
241
235
240
246
248
254
248
241
236
231
235
256
260
261
274
267
235
228
246
252
261
285
283
274
263
257
268
271
273
284
294
292
299
308
310
312
313
324
335
336
319
320
332
322
321
318
308
323
338
317
290
310
339
346
337
315
295
283
287
288
282
266
240
226
227
236
225
210
192
187
194
184
179
186
183
189
211
212
203
208
220
214
199
188
191
217
219
203
199
202
212
213
214
210
221
233
246
245
250
258
248
243
243
239
250
248
231
223
227
252
264
240
234
241
256
259
266
266
263
262
257
257
277
302
313
313
300
293
290
301
302
314
327
318
303
288
288
291
305
327
347
319
277
268
299
327
338
332
321
321
323
322
318
327
335
351
348
336
331
323
313
313
317
328
330
336
337
321
315
323
314
295
300
328
341
346
334
324
321
330
330
320
307
316
338
345
338
327
343
348
333
322
327
339
344
366
366
362
355
359
367
361
353
375
391
374
363
353
337
344
366
380
365
357
356
374
369
357
364
364
353
348
361
372
378
366
372
393
410
400
388
389
396
422
448
428
396
392
396
412
423
400
372
370
373
369
378
394
399
384
379
390
406
411
401
372
368
388
385
385
396
401
404
402
396
372
347
337
354
368
365
401
447
501
570
638
728
812
874
916
884
798
670
534
439
382
357
342
333
354
371
375
373
359
352
361
364
368
384
381
353
345
363
372
369
373
372
380
400
400
382
394
408
416
431
439
413
396
403
418
414
401
401
413
435
457
451
432
419
420
423
449
444
426
434
455
459
454
462
474
483
478
469
465
463
469
487
471
463
467
482
495
505
508
512
510
502
503
505
496
492
513
535
540
542
534
523
525
540
554
552
559
570
575
578
579
583
589
594
599
601
594
579
564
577
595
589
583
571
575
573
565
548
509
491
503
516
504
486
497
495
481
485
490
489
480
465
455
450
455
459
466
469
467
471
465
456
453
446
461
468
470
474
485
484
489
479
471
479
483
488
489
485
482
482
477
484
495
506
516
525
530
509
490
480
489
514
523
509
513
529
549
543
525
515
519
523
522
518
513
500
502
521
539
537
550
547
542
555
536
516
512
535
544
527
529
537
529
527
544
551
544
530
551
562
559
548
554
548
549
551
552
557
548
551
550
555
550
550
557
553
545
537
524
520
539
557
562
559
545
536
539
553
550
553
545
541
550
554
560
566
541
524
530
542
560
583
570
566
580
594
611
584
556
548
550
536
527
537
544
556
560
578
596
603
604
591
569
563
561
565
580
568
558
560
553
551
570
559
536
526
544
567
572
564
566
551
535
529
529
522
524
520
530
540
560
578
590
586
565
521
490
490
497
528
570
609
667
730
802
897
989
1023
1023
1000
906
779
664
552
483
467
473
475
475
498
529
545
530
525
531
515
512
526
529
522
531
529
515
503
503
525
539
533
529
527
528
526
544
555
555
537
525
517
530
541
533
528
544
558
562
575
583
576
566
562
552
553
555
568
577
589
575
577
587
587
569
555
575
593
587
575
580
590
603
601
587
590
602
610
624
624
618
612
590
589
608
616
627
632
632
638
638
623
618
624
644
660
645
646
662
659
662
676
670
672
677
669
674
679
673
668
667
662
655
632
612
609
618
610
599
595
601
578
556
561
569
568
555
546
528
535
544
534
520
525
532
524
519
522
540
538
548
569
544
514
516
532
536
522
523
553
576
547
527
524
520
530
548
539
527
541
551
560
574
587
569
554
543
534
539
547
569
572
570
560
555
553
564
578
579
579
568
561
566
581
581
586
597
602
578
574
590
599
597
587
582
589
583
589
583
563
556
575
587
610
619
617
590
561
558
569
572
573
572
558
543
545
579
597
595
584
589
591
585
565
562
554
564
587
593
581
573
598
608
589
582
586
575
581
579
552
543
559
584
606
603
574
580
601
597
572
546
578
610
612
604
610
607
594
585
572
572
587
615
597
560
568
591
593
589
577
580
578
576
577
566
563
565
590
619
623
637
640
609
585
596
616
599
592
604
600
596
583
589
605
606
599
600
611
620
621
633
631
623
609
589
576
572
565
563
557
561
586
610
610
595
585
575
565
581
591
589
584
572
567
592
612
580
576
583
583
562
539
528
509
512
546
621
712
815
913
991
1023
1023
1023
1023
936
779
650
575
535
539
549
539
542
544
533
528
528
523
512
495
490
516
526
513
508
542
550
534
517
517
518
519
527
515
514
538
559
562
558
535
509
495
497
514
531
547
566
587
586
566
545
537
549
563
579
586
568
534
539
546
548
567
573
575
567
573
564
562
576
574
580
585
573
556
575
600
586
574
577
569
577
602
620
623
597
576
600
605
597
606
618
626
618
622
627
631
644
648
642
646
645
658
673
676
670
653
649
646
646
643
634
624
623
626
616
606
612
609
583
581
536
504
527
535
527
531
546
543
533
537
552
559
542
515
501
513
525
520
512
514
524
517
503
504
531
531
510
510
528
544
523
520
521
517
528
532
532
532
539
543
531
521
523
504
487
521
546
552
547
560
551
524
515
532
548
559
568
577
563
540
548
554
537
521
526
528
536
546
547
543
540
556
573
566
571
578
576
576
557
537
523
538
564
585
579
572
560
542
535
530
548
560
564
552
535
557
578
587
593
602
610
591
561
516
509
526
537
553
558
552
537
561
585
592
585
551
538
538
542
544
547
543
544
541
527
547
572
575
556
544
566
596
590
566
558
562
561
543
552
561
554
562
579
565
546
549
562
555
546
560
582
561
533
546
547
552
561
558
574
591
588
588
588
568
540
536
545
551
539
538
565
582
587
584
578
566
590
599
579
581
588
554
547
534
520
516
531
539
553
569
573
574
583
592
598
585
568
555
561
559
541
543
538
526
521
515
527
506
488
494
510
535
558
562
561
559
539
525
519
527
521
515
529
524
497
494
510
524
554
598
649
713
801
891
981
1023
1023
989
891
753
631
548
487
458
487
510
497
486
490
490
477
454
453
464
452
449
456
436
432
435
444
444
446
456
476
484
479
487
488
502
482
451
448
456
473
483
492
490
483
495
512
513
520
527
499
480
463
479
501
511
519
513
517
528
541
531
500
486
512
537
510
494
478
500
522
552
549
539
521
499
495
514
544
552
534
527
535
546
546
551
556
578
589
564
553
575
590
603
614
587
572
592
635
654
647
620
607
591
584
591
612
615
613
616
617
611
605
591
574
559
580
583
563
557
552
556
554
528
517
520
500
510
517
526
542
519
509
508
496
476
479
486
493
487
488
486
478
473
482
502
530
537
533
513
491
483
481
491
485
479
485
496
508
505
493
489
516
524
528
514
513
533
526
505
483
489
513
527
522
511
508
502
505
515
502
475
463
481
494
502
527
541
521
508
520
501
504
529
545
512
484
484
507
524
517
507
508
506
516
519
514
516
520
528
526
508
517
538
538
536
519
499
505
531
556
559
548
533
521
522
511
510
513
528
508
471
486
511
526
518
529
539
544
541
524
518
522
517
520
539
540
545
550
542
537
536
539
530
536
529
510
509
514
516
535
551
548
541
553
549
531
504
496
515
527
526
497
483
499
516
517
515
520
526
499
497
493
506
522
519
517
523
523
535
525
518
551
567
546
547
539
501
464
466
482
504
516
521
550
559
556
536
532
541
557
552
546
561
535
491
493
501
504
481
470
482
492
490
476
479
449
427
436
449
462
461
453
434
444
467
475
473
455
430
424
430
431
432
472
540
591
651
753
838
914
966
957
910
827
698
558
462
403
406
432
448
457
459
449
455
433
417
424
443
449
437
418
414
417
438
459
454
463
444
437
457
479
484
494
470
476
477
441
420
406
417
421
429
422
425
438
438
455
468
474
484
478
480
495
484
452
434
424
428
460
470
467
460
473
476
467
461
453
471
512
512
484
477
475
478
497
503
499
493
501
504
518
540
540
531
518
520
541
550
553
559
562
567
571
577
573
566
555
539
528
539
539
546
551
556
563
568
577
575
564
553
549
551
536
526
526
542
544
537
535
543
517
486
463
444
443
422
402
442
465
448
448
452
459
449
427
410
420
445
454
432
436
442
442
441
440
454
466
496
517
495
478
464
467
455
445
421
406
425
441
454
442
443
464
471
477
476
472
487
506
511
519
519
509
494
481
487
481
464
471
480
481
474
464
459
467
484
470
478
483
452
433
477
507
510
508
498
506
512
515
532
534
515
485
466
470
488
494
506
515
518
502
496
483
482
480
501
502
484
475
466
465
475
488
499
491
481
491
499
478
479
492
493
504
504
497
492
487
484
481
469
463
475
489
495
490
486
492
507
523
523
509
512
518
500
477
464
483
503
513
495
493
486
467
471
475
493
508
509
498
466
468
507
532
526
502
497
482
474
479
497
500
493
509
546
548
539
534
510
495
489
493
487
476
467
462
461
472
479
481
461
428
445
452
454
454
445
440
448
439
456
471
477
481
466
420
398
418
455
489
533
586
642
703
795
902
966
952
919
876
774
644
523
447
395
386
384
378
369
371
398
405
404
406
403
382
373
386
377
373
384
403
419
422
425
424
422
424
422
435
427
419
427
430
429
433
449
465
486
490
466
437
433
441
444
440
431
426
419
414
436
457
455
448
442
461
495
515
508
493
478
478
500
516
511
488
511
527
500
490
522
545
542
513
509
524
525
505
495
499
525
535
537
541
530
512
518
538
547
547
535
537
558
566
574
583
591
587
603
616
614
593
590
590
588
596
587
564
576
576
559
552
530
490
482
488
488
486
488
480
458
468
474
479
503
510
467
441
427
437
465
475
449
441
442
456
467
466
460
469
465
465
475
453
443
476
500
521
546
521
493
483
481
470
472
481
504
514
519
512
514
525
522
479
466
487
495
512
528
523
513
517
532
533
520
514
518
520
506
511
530
558
559
559
572
560
538
544
562
560
556
554
557
547
517
488
494
539
570
578
567
559
570
570
583
578
562
550
542
553
554
551
556
554
545
529
530
543
526
509
494
487
468
466
482
498
511
517
506
510
528
535
522
510
521
515
504
497
499
506
500
508
511
498
480
481
509
535
540
526
510
461
459
496
501
478
467
471
481
482
490
492
480
475
474
471
461
469
488
504
506
485
482
485
472
476
470
469
483
508
496
469
478
490
478
469
462
462
473
477
487
495
489
483
458
454
469
471
473
498
515
519
539
536
494
463
463
490
500
514
526
531
526
505
488
496
493
464
452
462
457
436
437
452
480
503
502
487
467
456
473
487
483
476
478
464
474
480
478
485
489
466
446
438
428
427
453
484
556
648
742
820
884
951
974
949
837
700
579
525
475
428
409
402
403
403
415
439
447
437
425
410
407
425
431
421
416
393
380
391
383
366
384
399
400
401
418
432
438
458
473
459
435
415
416
432
442
443
442
443
451
455
448
435
435
452
462
464
474
490
484
460
432
434
456
472
489
483
482
483
486
480
475
486
495
487
495
490
476
486
492
507
531
516
517
514
500
500
497
521
554
566
544
530
523
535
540
551
552
571
593
578
556
552
566
595
599
593
591
581
571
575
580
567
568
579
572
540
519
512
507
502
483
468
460
467
468
462
462
477
480
462
478
492
473
442
427
408
401
407
412
422
441
446
443
438
458
488
474
436
425
441
469
481
483
465
455
458
463
482
488
472
464
463
449
448
455
465
467
480
477
458
448
458
463
476
490
496
507
517
504
463
418
429
472
493
508
530
537
526
498
479
481
479
487
492
493
504
507
495
502
485
476
476
492
514
516
495
480
468
463
471
482
489
510
544
554
519
487
479
489
504
526
511
491
505
512
501
487
484
482
482
487
499
506
518
534
532
517
507
495
485
502
494
470
470
463
465
488
510
523
527
526
525
521
509
504
499
491
475
481
490
491
495
505
519
513
503
516
532
522
509
528
525
508
498
485
494
524
536
522
512
510
507
494
477
471
491
496
487
503
521
520
511
499
507
524
540
551
538
512
484
489
528
545
551
538
528
523
496
494
516
505
497
520
542
553
551
535
522
509
515
533
539
542
513
501
498
492
497
520
522
492
470
469
476
497
512
491
492
514
522
512
481
474
492
511
512
509
485
477
477
444
432
458
505
545
631
724
814
873
925
977
1017
980
869
721
594
494
445
418
413
414
424
448
457
437
426
424
415
418
436
446
427
409
424
452
451
450
456
442
430
433
456
455
446
438
436
438
442
431
441
453
469
497
502
499
489
479
481
483
467
462
455
449
475
498
500
490
477
483
494
502
490
488
491
483
484
505
514
508
510
507
503
519
524
502
503
527
541
537
514
505
526
558
574
559
536
543
546
548
549
533
540
536
526
554
574
578
583
594
615
607
580
563
576
581
568
564
571
567
577
579
580
584
576
569
558
525
501
493
482
491
484
475
475
483
487
466
453
440
437
461
465
437
430
438
435
442
459
473
480
486
491
477
463
434
421
448
467
448
440
449
454
467
476
488
489
477
467
467
473
481
499
499
474
468
466
447
452
473
483
516
508
495
494
500
499
496
504
511
503
483
468
462
480
505
510
529
537
527
505
504
514
519
506
500
506
515
505
500
520
524
517
496
499
503
496
494
498
523
518
512
494
467
461
485
500
506
519
518
515
497
478
492
512
531
545
555
542
516
485
476
492
507
513
510
507
496
481
484
479
485
497
507
520
520
519
520
505
499
506
515
506
495
497
520
545
547
531
521
507
498
514
537
549
524
496
485
470
507
540
555
551
547
528
521
512
501
507
525
528
511
499
495
503
551
571
543
508
504
501
503
512
510
496
494
489
474
486
487
490
489
496
527
534
525
517
510
490
480
481
507
527
528
501
468
438
454
462
446
442
495
553
621
685
772
865
927
946
930
895
824
696
574
482
421
417
412
403
413
437
445
465
479
495
482
443
409
413
448
456
450
458
452
438
452
466
466
459
448
442
452
460
471
476
478
476
479
478
482
494
506
498
496
488
473
458
446
441
458
506
537
506
493
505
514
512
516
514
507
498
519
538
534
513
510
499
494
498
519
525
525
520
513
536
531
527
517
518
524
528
527
521
543
546
537
546
550
553
577
588
570
568
577
590
580
565
572
597
597
580
582
594
599
589
578
577
577
570
584
561
533
528
529
519
526
517
497
490
496
489
470
436
428
442
452
466
461
462
472
471
455
456
447
436
434
431
432
448
474
489
470
450
442
438
420
425
445
456
454
459
461
468
463
452
463
476
481
492
504
499
484
494
506
477
476
490
499
508
516
526
528
526
510
473
449
446
450
474
523
540
523
494
490
485
484
478
486
486
497
512
505
501
485
488
505
520
513
510
508
507
504
506
499
495
484
482
495
501
505
513
515
513
522
503
478
493
501
487
472
476
498
510
513
512
519
517
510
512
519
527
529
521
521
523
489
466
476
481
503
512
512
501
480
482
515
532
515
489
481
495
504
508
520
528
520
499
485
489
492
497
507
506
502
502
524
533
539
537
521
500
484
483
482
515
518
541
548
542
546
534
523
522
525
526
516
503
502
502
495
498
499
472
451
468
491
498
514
513
471
456
483
490
476
458
458
464
473
489
525
551
536
516
499
479
455
438
429
426
462
529
594
649
729
824
917
977
987
959
869
739
614
517
453
418
412
424
424
444
437
433
445
446
435
418
414
397
387
413
441
450
439
440
433
418
410
433
434
411
403
404
423
452
461
449
448
452
451
448
459
460
452
443
441
434
433
431
449
462
470
457
450
455
470
483
484
489
488
480
472
475
485
493
498
508
496
478
475
496
517
507
489
491
509
525
538
543
548
537
525
517
502
507
528
558
557
545
533
532
534
539
558
557
570
587
607
596
574
555
574
609
607
585
554
545
564
585
597
591
563
550
540
525
501
490
495
480
472
480
487
477
472
465
463
471
481
486
493
487
459
466
454
437
421
428
455
473
471
467
472
475
468
467
481
499
504
504
497
480
475
480
472
463
477
509
526
527
527
538
543
535
535
513
486
481
498
523
531
508
510
518
536
532
536
540
545
551
541
536
550
562
571
571
555
543
548
552
559
566
578
577
575
558
540
547
562
572
590
582
576
567
534
526
539
571
607
618
618
615
595
574
581
600
601
604
592
602
595
577
576
584
608
630
639
614
579
578
601
615
621
617
614
611
612
628
625
603
597
621
629
636
642
633
638
643
632
617
622
638
665
667
631
634
657
649
644
633
637
638
633
643
655
666
661
648
635
631
638
642
665
680
684
670
664
676
681
681
690
687
674
671
677
686
699
693
689
690
705
698
679
709
724
699
694
695
701
704
705
708
712
703
695
689
682
682
683
691
690
676
679
694
700
682
665
655
668
688
713
713
708
696
693
705
714
710
700
663
640
643
662
681
721
786
869
938
1011
1023
1023
1023
1023
1023
1023
913
786
715
683
665
648
656
666
682
675
661
656
649
624
641
662
652
633
640
654
669
664
653
658
658
646
649
657
679
677
677
681
691
693
671
676
693
701
695
690
689
692
693
686
686
695
691
683
680
698
718
744
736
717
695
708
732
732
715
715
719
717
706
692
695
696
685
675
695
714
732
736
708
691
700
705
724
740
737
733
741
740
725
713
738
771
780
766
751
743
731
730
739
744
750
755
767
770
777
759
743
729
732
733
720
713
722
710
726
717
694
671
654
648
640
640
615
599
601
594
585
572
589
589
586
584
566
547
557
566
553
549
555
562
582
569
545
543
555
558
544
530
537
568
595
575
527
499
480
493
507
516
524
529
530
532
527
511
510
514
505
493
510
522
523
527
531
529
514
497
502
518
507
505
528
528
513
499
476
456
461
465
455
466
485
501
494
478
469
465
473
476
457
463
467
467
475
466
433
423
425
425
436
442
434
432
446
435
429
429
428
420
412
413
415
418
413
429
449
421
403
407
416
411
389
385
393
414
423
408
399
387
383
383
380
379
374
375
386
376
365
357
375
385
393
406
397
381
381
372
363
365
370
361
348
348
349
322
313
322
334
335
322
328
336
328
322
322
331
341
339
332
337
342
350
358
359
364
371
362
325
323
338
346
343
329
317
330
354
355
318
295
303
302
305
304
291
281
279
267
270
279
274
280
269
259
250
231
233
272
280
281
281
256
252
268
297
307
289
249
222
204
213
220
229
253
306
357
418
516
616
714
785
801
758
663
513
366
265
208
184
165
185
199
200
184
186
199
202
184
188
199
196
194
187
183
176
173
173
178
214
223
223
221
222
212
214
218
218
234
254
244
218
211
208
232
237
246
257
271
265
250
228
228
233
213
223
250
273
288
281
270
262
261
260
265
277
290
280
263
257
266
279
297
307
312
317
306
291
283
281
288
284
289
297
304
321
323
310
314
342
360
336
336
329
342
346
329
322
333
352
381
389
394
396
394
398
418
408
379
363
375
384
371
351
354
344
328
312
322
321
310
291
288
290
276
276
255
221
200
196
204
221
248
257
255
254
249
268
282
268
244
227
224
235
243
258
281
286
291
278
286
277
282
294
305
297
270
281
294
292
296
292
285
255
264
308
311
324
340
342
333
338
328
321
322
326
316
318
347
355
342
339
330
348
359
374
388
368
359
372
354
336
326
342
347
361
380
381
351
326
336
350
378
406
415
392
387
377
360
363
373
380
392
400
392
393
377
348
350
375
378
373
374
374
375
399
400
382
379
389
394
408
411
397
385
384
389
410
416
401
390
394
408
407
392
406
426
428
431
435
411
404
414
418
405
399
415
428
438
435
437
443
453
439
428
411
403
403
418
440
451
462
463
459
446
425
416
437
448
437
424
416
394
394
418
415
388
381
399
406
405
414
427
422
434
445
444
439
429
434
432
406
403
400
387
386
392
411
492
606
702
769
823
881
926
909
818
694
570
459
380
333
329
341
352
371
394
404
398
396
403
415
408
403
413
402
386
402
398
391
388
399
400
414
431
422
410
431
437
432
429
426
413
422
433
444
459
454
440
433
443
449
442
442
455
460
469
461
459
467
468
452
446
463
470
485
496
500
488
483
481
479
482
489
496
492
499
495
506
515
523
508
484
494
507
519
523
510
512
533
551
560
553
541
547
546
545
549
554
562
575
591
589
557
555
560
574
585
576
580
576
583
578
560
536
540
529
526
517
511
522
525
493
485
482
489
491
496
496
479
463
450
454
456
434
428
440
449
457
456
458
464
463
455
452
460
455
446
456
477
501
487
473
466
457
458
462
481
488
486
486
497
498
505
527
507
479
484
483
485
481
487
495
507
527
529
516
500
504
500
470
470
524
572
583
553
521
506
516
521
534
540
537
529
523
531
545
557
564
563
546
535
535
510
510
512
522
525
515
503
544
584
565
536
534
549
545
528
507
516
533
544
551
563
548
532
526
527
517
512
529
530
544
549
534
522
531
544
540
519
539
551
547
537
540
559
566
548
546
563
590
595
553
523
537
548
546
560
577
585
565
544
525
502
513
547
567
561
552
542
554
579
586
569
560
564
571
563
560
570
596
621
600
579
576
569
555
576
600
590
560
549
547
525
532
543
555
556
550
557
555
533
528
532
541
542
526
522
523
512
517
522
524
538
550
547
520
500
480
479
483
496
535
591
640
701
806
919
1002
1023
1023
1017
942
823
689
584
527
492
473
478
491
503
513
516
489
477
498
495
466
446
445
466
488
509
525
507
479
476
477
476
479
488
504
528
530
513
524
530
505
500
510
498
492
516
543
544
546
556
554
535
510
534
526
507
512
539
552
533
515
538
572
577
562
542
543
560
563
579
588
595
585
583
587
584
586
589
588
582
582
584
590
589
588
613
601
583
583
592
608
622
633
641
625
618
633
636
637
633
624
629
656
665
659
663
666
649
646
655
675
685
680
671
639
606
599
586
566
548
555
553
541
539
530
529
528
527
520
514
510
490
487
499
507
515
503
477
471
501
546
563
572
559
539
536
549
565
563
531
527
539
543
546
550
552
529
524
550
561
555
559
550
531
520
506
498
514
536
558
583
568
565
564
563
584
582
559
555
563
579
567
553
555
573
580
560
547
552
563
573
595
610
573
560
592
627
611
594
574
539
547
553
541
537
558
580
580
576
581
577
575
568
557
565
563
567
548
543
559
564
590
604
573
572
575
579
591
580
560
563
574
590
601
589
574
580
596
591
581
570
564
552
577
605
597
576
561
560
572
580
572
560
559
579
610
633
616
577
566
579
589
579
559
547
548
569
566
573
567
567
585
590
577
558
552
565
586
612
604
591
579
567
579
565
555
576
599
602
597
594
604
603
594
590
597
607
607
576
564
562
586
586
568
581
597
612
604
592
596
587
571
583
616
622
614
606
611
604
603
596
585
575
572
561
566
558
568
576
577
574
584
591
569
560
581
590
578
576
570
563
577
581
568
564
547
538
546
536
525
526
523
573
653
718
785
863
943
1023
1023
1023
1021
933
808
693
605
553
525
511
508
518
523
528
500
485
504
491
482
476
474
478
492
523
537
535
505
493
505
500
498
490
482
486
505
527
532
517
502
511
528
539
509
471
458
479
528
560
566
569
556
554
563
563
553
553
567
544
528
531
546
548
549
553
557
584
583
575
573
561
550
558
562
553
561
575
583
593
594
578
557
565
564
576
599
597
593
575
565
578
608
613
622
639
656
654
659
662
657
653
640
638
655
686
683
672
643
617
630
643
642
631
617
610
592
575
582
579
560
559
570
553
547
539
525
518
529
537
528
513
526
539
517
516
516
519
523
527
498
500
507
510
512
511
517
518
511
505
532
555
552
555
531
520
510
493
502
521
547
544
546
557
563
574
555
534
543
532
508
510
524
530
544
562
557
548
565
567
552
563
571
559
558
553
550
562
566
576
584
591
574
555
542
521
533
553
561
570
566
543
515
543
576
569
568
566
562
570
563
552
561
560
567
565
554
551
557
562
556
562
566
564
563
561
563
580
576
569
555
558
565
552
543
545
553
572
575
577
579
571
566
560
552
546
553
560
554
539
555
571
574
569
573
560
566
568
552
538
546
563
576
572
574
576
583
575
553
538
540
553
562
567
575
571
564
570
561
545
557
576
593
604
616
594
547
503
519
552
528
519
543
567
569
574
576
557
551
563
572
569
569
560
560
573
574
573
569
554
565
579
577
564
551
575
579
593
592
587
599
615
609
604
588
574
582
583
577
562
544
540
550
551
538
528
530
534
517
508
540
556
540
530
549
559
539
546
554
546
548
559
560
540
525
509
489
485
496
519
547
617
694
768
853
937
1001
1023
1018
959
861
742
648
583
530
491
485
500
503
478
458
470
483
474
458
466
477
467
467
484
494
449
428
437
448
465
484
488
496
505
504
496
490
494
496
499
504
510
518
518
512
509
513
523
510
497
508
524
533
522
494
504
530
536
530
515
509
532
530
493
492
512
507
497
522
533
537
537
533
543
551
554
566
573
568
551
533
530
546
578
573
550
561
564
550
561
592
602
581
559
559
574
586
585
580
558
555
579
594
606
607
590
592
593
592
574
574
588
592
579
576
559
548
552
554
556
546
515
491
479
469
467
472
455
462
456
456
464
458
446
457
461
450
453
446
445
440
447
453
473
475
458
454
457
460
453
444
438
464
477
457
470
492
505
502
482
484
484
476
475
478
468
474
464
466
465
455
464
487
487
479
487
507
504
480
463
457
460
476
497
502
489
481
496
514
516
505
495
499
508
510
506
481
457
455
452
460
475
482
491
498
508
504
480
486
489
470
466
466
489
518
507
508
507
495
492
492
483
473
470
469
480
508
521
493
484
477
475
488
485
480
494
517
506
477
462
474
485
482
478
474
469
476
496
499
485
481
486
491
504
510
493
508
497
482
486
485
488
499
477
469
468
482
487
477
459
466
485
504
509
509
523
520
493
476
481
509
514
499
481
484
489
503
524
518
515
517
499
485
476
466
465
471
487
470
459
454
460
454
450
436
438
449
449
462
480
474
458
463
468
452
446
474
479
466
441
410
395
423
458
489
541
611
678
760
864
926
944
948
905
791
639
501
412
365
341
357
401
411
407
407
422
416
400
396
388
388
397
383
386
416
429
431
422
418
425
407
399
389
400
400
390
412
421
429
442
447
435
416
419
436
450
442
400
382
403
422
449
472
473
467
467
470
464
454
448
441
433
427
429
430
446
460
482
496
497
493
483
450
446
456
480
479
468
475
477
468
492
496
472
451
442
453
503
524
518
525
529
524
532
531
527
552
561
544
542
555
573
573
540
517
529
531
524
528
544
543
531
531
525
534
514
477
474
475
454
437
425
424
439
424
412
411
404
400
412
399
399
427
435
405
394
391
411
417
411
419
408
397
402
407
419
418
419
419
430
434
425
400
377
397
428
439
432
441
448
446
447
439
445
439
437
436
445
453
450
454
470
457
439
426
429
439
451
476
494
476
438
443
465
472
462
458
452
446
454
457
461
481
469
444
454
469
476
493
514
514
493
467
446
444
454
453
451
452
440
429
427
430
425
441
471
483
486
480
473
470
469
470
466
459
462
480
498
479
484
489
484
470
473
479
462
459
453
450
457
460
449
444
440
444
457
467
485
492
478
477
503
509
473
446
450
468
481
461
451
470
491
483
473
469
464
462
486
502
468
464
465
463
460
466
480
471
488
486
479
475
476
486
482
479
486
471
454
483
491
466
464
475
486
483
508
517
493
481
491
504
500
475
465
481
485
490
516
535
531
498
476
461
470
485
486
489
491
492
484
466
444
411
411
443
459
473
487
499
488
478
460
450
456
456
459
461
452
459
456
448
451
455
458
442
414
420
462
526
559
593
679
764
838
912
953
953
905
806
677
573
481
403
386
402
409
407
413
419
419
406
383
387
392
401
413
421
400
391
391
386
396
401
387
398
397
404
424
441
435
429
429
406
378
406
448
455
442
455
460
457
446
445
462
455
449
452
424
412
435
453
452
455
452
454
466
485
475
447
443
455
456
460
499
508
491
502
503
485
465
479
494
501
527
528
520
500
499
515
523
531
534
524
528
542
552
540
497
469
469
491
537
566
561
560
559
565
564
564
576
578
581
599
596
591
576
552
543
512
500
491
493
500
509
510
484
471
456
460
459
470
474
457
429
413
415
412
417
438
464
467
451
447
469
450
431
438
434
444
460
454
447
449
449
458
451
443
442
449
453
439
445
457
459
455
477
508
523
506
483
481
465
478
480
467
479
485
477
481
470
461
479
490
488
470
454
459
460
472
484
472
474
494
497
494
483
472
488
503
514
509
478
463
482
486
488
503
510
503
498
500
495
478
487
507
513
510
490
497
504
516
499
492
506
515
522
494
477
494
511
516
526
523
513
527
518
482
485
503
506
499
489
475
469
484
498
507
504
499
508
527
539
504
484
508
506
491
482
495
524
525
515
508
503
521
529
514
504
508
497
496
509
506
501
527
538
515
502
513
517
508
490
465
464
498
524
516
497
486
518
535
521
512
497
498
508
513
515
513
512
507
508
523
544
548
544
532
524
521
500
486
493
521
535
537
534
530
534
542
518
516
542
552
557
550
544
533
506
495
507
503
492
495
496
494
491
491
487
478
459
440
475
510
496
496
518
505
497
508
507
508
495
465
434
430
447
485
530
582
646
703
786
887
989
1023
1006
939
850
717
583
506
470
449
437
441
448
433
413
433
450
451
442
429
433
453
439
414
418
446
445
442
447
463
453
453
451
452
433
434
442
447
447
458
464
465
464
463
459
472
485
487
499
490
477
484
499
502
500
493
496
506
516
501
490
503
514
528
543
532
503
464
470
505
528
538
530
527
521
517
512
504
512
523
536
555
548
537
563
588
559
527
532
547
561
564
568
576
575
569
561
561
591
610
611
605
603
605
594
596
599
597
580
565
579
603
609
611
588
562
533
526
530
524
507
501
492
480
478
488
497
480
483
490
477
459
457
457
466
474
455
447
464
489
500
491
459
439
443
459
476
482
478
493
494
476
455
456
457
453
456
471
502
516
508
504
485
470
481
505
517
501
479
491
516
529
534
522
503
497
488
465
473
499
524
539
507
493
510
504
501
507
511
529
527
511
503
514
549
562
536
510
507
495
483
474
495
525
542
536
558
558
543
514
525
516
489
511
552
549
525
484
487
507
513
523
525
497
480
497
508
504
515
544
555
541
552
568
557
545
532
517
502
488
484
496
521
535
543
534
530
533
512
500
496
491
498
510
521
527
522
507
497
506
526
550
556
535
521
526
535
548
564
546
517
518
525
526
531
547
545
547
555
555
538
525
537
551
566
564
544
520
536
546
515
476
470
477
509
524
504
501
517
512
509
510
505
495
495
510
517
512
513
507
509
517
524
516
511
504
492
481
466
447
473
518
590
685
780
884
953
978
966
938
874
768
630
522
461
434
409
392
408
436
459
481
477
464
457
451
448
442
454
473
486
488
487
488
483
480
474
457
448
448
441
461
474
466
469
490
506
526
516
503
500
479
495
490
471
467
463
478
505
505
506
515
508
505
518
519
504
531
551
538
518
510
517
514
506
508
510
525
550
547
522
530
528
522
530
537
533
538
540
548
552
558
537
532
569
568
570
588
607
602
610
614
595
575
569
594
614
613
600
602
602
598
594
582
587
606
625
610
582
586
574
551
534
527
518
525
534
538
538
535
505
471
450
431
447
465
480
470
461
466
467
446
437
433
433
451
454
457
460
450
467
490
497
486
460
458
459
452
450
479
506
514
482
468
466
488
483
460
451
470
478
482
484
507
527
514
492
495
486
482
498
513
515
504
495
500
497
487
483
498
498
504
532
529
524
510
502
516
528
537
523
508
503
510
513
513
497
487
491
510
525
534
551
540
524
500
492
512
515
517
517
506
518
525
515
516
526
507
499
506
510
523
524
493
466
484
512
535
527
509
507
509
484
502
527
519
489
486
519
529
513
508
521
522
527
534
533
528
513
523
540
545
537
542
531
526
525
515
515
519
514
507
496
517
547
531
528
542
547
533
515
493
509
528
536
533
526
530
543
561
554
561
571
572
536
496
475
497
528
554
561
513
483
471
475
499
525
534
508
491
506
521
505
483
479
506
530
529
513
487
464
457
460
449
444
484
541
598
652
724
825
912
967
998
989
938
845
706
569
478
437
428
424
427
437
445
467
472
451
461
476
486
455
427
423
419
412
403
402
415
442
461
484
482
470
446
443
447
442
434
461
498
504
505
488
472
473
478
494
499
470
461
464
483
497
498
485
488
506
517
525
511
497
485
468
486
496
498
500
499
502
498
509
516
527
549
551
527
522
524
521
539
551
534
513
526
530
535
563
572
563
573
604
616
582
545
534
559
581
597
590
593
603
590
595
595
594
596
589
589
574
558
551
561
565
588
602
592
572
566
554
531
508
506
514
494
470
471
457
448
443
444
469
482
463
448
451
462
451
432
427
434
452
457
461
472
491
505
489
448
436
454
478
479
465
476
466
481
510
493
488
486
481
468
473
483
485
470
480
499
506
516
518
509
494
505
509
496
488
483
483
485
497
510
520
507
492
501
504
506
490
487
507
522
544
545
523
506
510
509
506
490
488
503
510
502
498
507
527
522
485
486
506
523
525
531
496
481
501
498
486
502
520
514
486
483
492
489
508
523
515
516
529
539
529
517
498
499
500
506
522
529
531
527
512
497
485
491
497
497
484
483
505
545
540
523
490
471
471
467
484
504
529
531
521
505
503
509
508
518
518
501
517
520
522
514
502
499
490
481
512
539
544
539
536
548
557
530
513
538
534
494
475
481
498
510
494
498
509
512
526
531
545
545
537
533
517
513
514
520
528
530
514
494
516
527
515
510
517
507
510
505
490
483
485
489
490
491
502
506
510
514
518
496
468
475
480
457
435
439
454
494
537
568
614
719
821
908
971
984
974
942
864
736
603
522
472
443
441
429
446
476
472
459
449
434
436
427
426
425
403
399
397
400
405
414
431
418
410
426
440
452
467
475
475
459
458
476
466
465
463
461
478
462
443
449
457
475
485
470
468
491
487
488
485
469
475
461
454
473
510
513
502
492
502
523
525
517
507
505
506
515
514
510
516
525
517
506
521
534
548
540
532
522
525
514
502
513
531
539
542
572
590
586
581
585
579
583
618
626
622
624
618
606
600
580
554
561
562
563
562
566
568
573
537
515
523
527
513
500
493
488
486
469
474
477
458
440
448
464
479
477
476
479
454
437
450
470
488
493
473
443
440
458
449
447
447
461
459
448
451
475
471
453
456
474
491
495
483
470
463
463
470
483
477
470
462
475
493
499
488
502
517
518
524
508
486
489
492
491
491
498
503
495
507
497
484
497
499
497
497
499
497
503
504
509
513
508
498
498
506
522
521
505
497
510
492
487
500
508
508
511
523
507
496
483
493
512
529
516
499
501
500
497
497
522
532
518
517
507
509
512
498
501
493
495
502
493
476
484
506
514
521
530
541
532
519
510
500
500
517
520
520
526
519
517
517
521
510
492
502
498
501
525
536
539
515
476
487
535
535
489
488
484
489
509
531
541
540
527
506
510
514
509
496
490
514
528
527
515
518
516
518
531
536
514
520
528
514
500
512
550
552
534
510
511
528
546
542
545
558
557
535
521
512
498
494
496
494
491
491
497
512
513
507
524
516
508
505
513
518
502
488
494
503
507
515
515
493
467
449
445
446
447
487
534
568
630
727
823
912
976
1003
965
903
817
701
601
533
486
459
450
443
436
449
451
440
436
434
425
416
438
453
447
448
455
437
422
432
450
444
443
449
462
477
477
462
433
439
442
457
469
455
453
461
479
476
474
466
463
493
513
503
482
458
477
503
503
497
497
502
503
510
521
528
542
530
507
502
512
529
518
518
517
498
476
492
525
536
558
562
546
513
508
531
559
558
538
543
566
560
535
530
552
566
572
586
600
602
602
599
586
574
592
608
623
616
590
567
562
568
572
572
571
575
565
535
514
512
522
518
514
525
518
498
487
460
442
448
459
462
462
460
459
467
471
465
449
450
467
470
476
466
455
447
430
415
422
441
447
439
448
475
492
484
463
437
428
434
461
492
498
491
487
464
466
487
514
513
498
497
480
457
460
468
494
512
496
480
473
469
465
477
497
507
502
484
465
474
488
494
488
513
540
532
528
527
494
484
486
499
522
508
477
483
482
487
507
509
496
498
518
504
471
474
485
488
512
510
504
508
513
529
521
487
464
474
489
500
495
504
515
534
533
506
483
491
509
504
483
480
506
527
536
526
507
487
499
517
517
496
477
494
489
493
520
529
529
530
524
528
539
535
516
512
528
511
498
515
530
542
538
530
545
585
591
551
515
490
485
472
470
496
519
504
498
512
520
514
519
506
468
438
458
488
493
505
516
503
514
535
523
513
508
516
490
480
474
472
462
464
473
522
584
641
716
784
852
920
967
961
889
779
639
514
429
392
396
392
409
437
446
472
473
460
440
445
462
464
449
447
459
464
457
456
463
472
464
457
479
470
474
494
507
479
468
482
474
447
451
463
465
486
495
480
470
487
496
472
478
488
479
480
487
500
521
525
510
517
511
481
468
518
556
542
542
544
542
540
507
505
515
514
506
513
532
541
539
541
545
542
536
530
528
523
521
548
554
562
598
624
594
579
602
631
623
602
589
591
593
591
590
587
585
580
597
602
592
586
578
571
569
556
541
518
515
541
548
541
519
482
465
446
432
459
487
492
470
461
469
466
455
446
443
444
444
459
467
460
458
456
437
425
431
449
469
497
515
511
490
471
459
462
483
503
480
452
443
447
473
487
486
487
496
498
498
486
505
514
508
499
494
502
502
504
502
493
482
499
518
527
537
539
532
521
519
522
508
504
527
520
519
528
531
520
525
543
537
520
491
485
495
506
534
541
516
494
471
471
489
528
552
545
535
520
520
536
530
521
518
508
506
521
514
505
510
537
559
542
520
507
510
510
500
497
495
504
523
536
550
543
541
532
523
510
509
534
554
564
559
515
504
510
515
520
523
538
535
512
483
503
529
532
519
510
532
550
555
557
576
571
570
564
543
533
562
577
547
520
512
524
526
511
478
479
494
513
505
501
524
519
502
506
512
519
519
514
516
517
516
524
528
530
516
470
439
443
459
484
529
577
639
733
834
917
972
994
986
938
847
712
575
484
443
442
448
447
449
480
504
493
470
445
426
418
436
431
416
437
456
451
464
475
506
484
433
410
422
434
451
475
478
429
418
432
453
480
485
489
499
504
500
495
498
490
493
488
492
490
479
477
470
468
463
496
517
532
535
522
506
484
508
515
509
524
525
484
467
484
517
523
521
531
527
524
535
537
523
533
541
516
518
524
537
585
592
584
585
601
593
570
576
590
603
601
588
598
617
615
605
595
587
582
568
584
626
656
624
569
545
528
516
522
536
539
527
501
491
488
473
464
462
449
457
460
449
466
469
472
467
441
433
450
471
476
476
473
469
444
432
456
463
462
474
483
499
490
471
461
451
443
434
432
444
467
475
476
468
460
455
458
459
486
506
494
484
457
440
482
500
492
472
465
474
473
481
500
511
512
504
492
481
499
514
516
485
475
495
488
487
496
507
507
489
489
504
500
521
526
502
479
465
448
458
473
480
503
522
514
507
505
497
494
499
495
487
485
488
498
499
469
470
503
522
530
489
473
512
515
515
506
499
509
503
477
469
488
516
521
506
497
473
489
508
515
498
477
476
497
510
496
495
506
490
467
481
506
524
545
554
545
530
506
481
475
484
492
489
499
515
504
503
527
542
543
545
517
507
501
483
477
494
484
491
518
542
547
551
539
540
551
557
558
534
508
500
516
536
535
500
499
505
491
487
481
487
484
484
502
499
488
471
458
484
512
519
505
485
477
486
509
516
509
512
508
482
464
448
464
494
534
574
638
729
833
913
973
994
972
924
841
699
577
513
481
452
439
434
434
456
457
446
460
480
456
421
405
392
405
420
432
439
453
442
413
420
439
437
443
448
450
468
459
465
484
478
464
457
480
506
499
464
453
451
460
475
477
475
476
478
486
508
530
513
487
465
469
478
487
509
527
523
527
534
523
508
503
506
517
519
524
526
531
546
549
534
503
514
528
532
534
563
559
527
539
576
579
571
570
572
590
592
595
595
607
603
600
596
606
608
599
607
608
602
594
595
597
601
625
618
588
571
558
553
541
529
510
490
482
501
534
535
495
475
470
482
478
479
473
471
477
480
463
458
469
482
480
485
501
485
445
454
493
516
522
509
499
499
510
519
521
506
492
495
496
505
513
510
501
523
552
548
540
525
503
503
500
505
532
548
538
515
521
537
518
495
507
519
526
538
550
550
558
558
542
542
549
541
535
517
534
563
568
549
531
525
527
533
534
518
521
537
545
538
550
550
545
531
520
533
547
543
551
571
566
563
549
551
553
537
536
543
556
560
552
538
529
534
554
552
531
525
541
552
564
572
558
524
542
564
543
521
525
543
538
519
519
543
551
559
562
565
571
567
548
524
506
497
520
536
550
571
578
559
533
513
513
530
547
536
521
521
526
541
532
537
542
548
546
549
546
540
553
560
545
522
516
526
533
529
546
553
547
538
526
534
551
557
580
573
538
531
526
551
568
575
576
553
542
521
503
513
516
513
501
478
486
515
532
532
514
514
525
513
512
503
514
520
506
513
508
510
532
531
512
483
454
446
455
463
471
517
583
664
734
813
890
981
1022
988
944
866
710
585
508
463
450
438
442
435
435
444
447
452
467
467
450
420
416
423
421
426
424
423
434
443
434
429
439
432
426
424
423
436
475
488
465
443
438
442
437
429
441
475
503
493
472
456
453
452
440
469
494
494
478
483
489
483
476
485
479
497
505
479
468
496
518
517
514
503
500
495
496
501
494
498
511
513
481
491
516
521
519
515
534
540
533
521
535
547
548
545
546
556
564
562
560
549
552
559
558
565
572
575
568
561
569
565
550
535
530
513
497
484
485
479
475
475
472
476
487
474
443
422
414
408
413
407
420
427
416
414
424
428
437
438
425
414
427
445
443
434
422
409
413
404
392
400
404
408
409
411
420
420
431
445
447
425
422
433
439
443
453
449
428
424
460
479
469
474
447
423
442
448
444
462
470
450
443
448
452
439
433
434
447
457
460
462
467
437
419
444
468
478
491
496
484
462
448
468
488
465
450
456
452
449
450
437
440
465
475
451
440
449
455
458
466
453
429
456
463
432
430
464
483
474
464
453
465
491
491
464
448
433
440
455
461
460
447
447
451
462
480
485
470
451
453
452
442
456
475
470
468
481
492
493
473
458
459
464
472
461
444
460
484
476
468
473
482
478
485
506
528
534
517
498
467
445
459
476
486
478
458
464
468
475
491
459
432
437
433
413
421
437
435
433
442
446
447
450
449
446
445
443
452
452
446
421
387
366
390
436
479
531
602
685
749
821
892
914
903
828
736
638
536
447
392
367
356
364
374
376
378
374
388
398
402
410
406
432
450
419
375
366
376
388
410
404
393
395
402
409
412
415
431
436
449
439
412
399
423
459
462
443
436
433
436
433
428
429
441
452
462
457
454
466
479
477
483
489
470
445
420
426
463
484
475
466
477
481
461
452
455
464
483
488
493
494
500
500
497
508
510
500
510
529
546
531
540
540
523
511
528
541
539
539
538
523
530
541
527
538
546
552
554
564
561
560
550
538
545
543
522
490
475
472
465
464
475
470
462
480
478
446
427
410
407
395
383
398
423
421
397
388
399
413
427
428
429
427
404
405
421
426
426
407
408
421
416
407
443
461
450
431
447
462
463
458
458
467
465
457
461
454
467
471
461
447
439
435
438
452
454
464
477
487
489
466
457
467
470
470
485
499
459
441
453
451
479
504
498
492
489
489
482
482
490
500
494
475
472
496
501
487
495
494
465
463
481
489
488
482
477
481
486
498
495
482
464
457
470
482
487
498
511
504
480
464
466
469
477
494
487
479
469
477
491
490
496
498
493
488
493
483
483
493
504
493
483
477
484
484
478
475
492
524
543
529
494
485
492
494
502
503
497
491
471
465
478
493
513
511
506
492
482
505
512
504
503
493
502
512
506
505
507
497
482
501
508
494
474
462
490
508
525
534
534
531
516
498
516
543
547
518
514
512
511
512
511
490
475
477
492
506
513
512
501
505
518
499
476
473
482
496
507
523
517
498
471
457
450
456
481
491
495
492
464
436
447
468
524
599
642
687
761
861
952
995
983
940
852
733
626
558
500
452
418
418
423
432
435
415
410
422
429
433
440
432
420
420
439
458
449
439
433
435
427
432
433
432
437
441
446
448
455
448
430
437
458
475
492
476
433
413
449
458
467
489
497
500
503
506
481
454
455
479
522
538
533
532
519
504
486
471
460
450
463
474
506
526
532
524
516
531
524
534
558
555
520
515
521
529
550
560
567
565
550
527
538
545
564
580
583
596
600
595
613
605
582
585
590
579
559
561
586
597
587
579
566
550
546
545
541
554
539
526
513
496
506
506
486
468
453
460
467
465
469
484
474
471
456
443
457
465
452
439
437
439
454
481
485
467
449
463
477
474
474
461
457
445
475
507
513
516
503
488
488
495
502
503
495
488
492
496
488
483
490
491
493
492
476
487
502
486
458
473
509
524
545
564
551
503
488
485
499
517
516
506
488
478
472
494
512
524
536
544
560
555
529
515
515
523
519
521
528
520
505
509
541
562
527
502
525
561
563
549
536
529
525
500
500
514
518
512
519
534
548
542
525
521
521
505
503
488
494
515
529
540
553
557
555
534
502
500
508
499
510
534
546
546
544
548
550
523
507
511
522
525
510
524
547
550
530
503
509
533
539
542
552
535
517
529
540
547
539
515
500
520
543
536
527
528
528
530
533
512
512
543
545
527
511
520
535
527
513
507
535
548
546
546
534
522
541
570
580
567
546
530
536
536
534
528
514
526
548
553
564
577
569
542
518
511
512
521
518
507
501
512
521
518
487
503
535
557
576
547
511
488
488
503
497
484
498
519
538
519
497
467
451
457
467
504
540
581
658
745
823
899
969
1009
1016
975
880
764
618
516
464
437
439
469
494
500
505
472
438
428
432
427
445
454
444
422
424
444
475
467
453
450
444
456
453
437
429
455
484
492
498
484
466
470
478
484
480
480
484
496
528
528
510
502
489
478
489
496
494
512
523
504
502
514
514
524
527
531
541
533
519
522
521
502
488
523
540
551
537
522
537
546
532
519
520
531
547
569
582
585
573
568
568
575
568
560
588
616
595
576
578
591
601
598
612
624
606
575
602
627
627
623
600
584
591
582
600
594
578
575
571
559
543
523
498
491
483
502
522
500
477
468
457
461
461
461
456
463
479
489
501
488
482
488
494
493
486
474
467
464
465
474
492
492
491
501
507
510
508
512
516
506
480
489
511
519
501
492
516
531
525
523
522
523
509
485
483
484
484
508
530
525
521
515
527
524
515
527
540
546
524
494
483
512
543
528
520
543
563
555
538
513
519
542
521
497
513
520
528
528
531
523
520
526
538
552
551
532
507
504
524
529
516
516
521
500
498
521
544
548
549
551
547
520
515
526
533
532
503
485
484
510
525
549
566
558
546
542
559
540
511
512
535
556
545
535
532
507
501
527
529
526
513
513
520
511
503
506
523
541
529
520
516
521
531
532
519
517
526
545
555
543
530
523
525
522
515
520
541
555
559
555
565
568
538
531
544
540
536
537
538
535
528
531
549
561
562
574
583
561
543
522
518
532
537
536
503
475
467
477
497
507
506
499
493
498
506
529
540
535
520
513
532
554
556
538
514
481
457
441
441
442
448
487
522
577
631
688
758
839
942
1005
1005
966
887
736
579
491
477
453
435
453
460
455
466
467
452
465
471
463
449
439
443
454
456
454
433
439
439
463
489
497
485
461
443
456
471
454
432
470
525
536
540
506
467
469
475
459
480
512
523
496
483
502
527
531
516
500
497
516
508
502
487
483
499
526
535
529
526
517
521
518
513
529
526
529
532
557
577
566
550
559
552
537
530
526
503
510
548
571
560
559
566
583
587
592
582
571
583
582
579
589
599
619
635
620
597
585
586
603
616
603
580
574
571
570
561
544
537
526
516
514
504
490
472
461
462
483
493
490
489
452
414
419
441
450
454
460
458
454
458
470
477
464
470
483
466
444
448
479
491
472
450
436
445
471
481
481
488
491
497
505
508
493
480
482
480
495
501
476
469
476
486
500
521
541
521
496
497
509
521
523
529
505
492
496
494
494
500
508
515
522
501
497
522
521
509
512
483
484
503
520
526
527
520
509
497
510
531
521
495
492
507
523
523
527
533
529
507
475
487
524
528
518
500
492
493
512
527
554
565
551
515
513
513
493
504
505
508
521
519
523
531
550
546
528
528
540
521
490
477
485
496
520
538
550
558
551
532
518
488
471
501
519
514
516
529
547
533
520
514
506
517
522
531
541
551
543
524
527
531
521
516
494
510
557
561
542
541
561
560
560
551
538
544
540
515
506
507
517
519
512
524
539
524
490
512
523
516
505
516
506
481
466
497
513
504
495
508
531
521
504
509
503
495
486
466
449
461
483
523
582
642
747
845
916
982
1019
999
939
816
676
547
448
410
423
432
441
453
460
447
434
428
440
444
444
443
433
428
424
431
426
437
437
416
444
450
447
440
456
444
435
426
419
438
456
454
454
474
486
486
486
479
478
481
476
461
458
465
469
491
497
482
490
504
487
481
488
498
503
517
516
500
492
496
502
498
486
508
530
536
532
500
488
492
511
535
553
533
515
510
527
547
555
543
529
520
540
569
578
571
589
598
587
567
583
610
590
579
587
622
631
617
587
576
552
539
565
576
548
527
526
521
521
511
505
493
472
471
495
496
483
475
480
483
478
479
471
466
462
444
429
438
462
466
461
452
462
473
479
478
476
481
481
475
459
466
470
460
461
460
471
480
495
504
493
500
504
481
453
447
458
500
529
507
493
485
490
485
475
483
513
534
532
528
533
526
509
496
495
494
486
477
491
508
527
525
498
484
492
521
522
522
523
532
533
510
489
490
475
444
488
533
544
548
551
539
520
502
490
481
489
494
491
507
533
537
540
547
525
524
555
559
519
485
464
459
466
488
518
547
545
523
489
485
506
517
526
524
523
523
510
489
471
475
486
480
469
494
513
532
539
524
518
519
529
520
501
496
499
507
531
548
536
517
527
536
532
500
492
501
487
497
508
505
500
538
550
495
478
503
511
496
495
500
500
505
514
498
483
514
539
546
547
542
533
529
521
518
524
523
494
494
521
523
524
555
582
581
556
532
526
509
516
532
544
537
522
490
502
498
486
475
487
492
477
493
517
528
512
493
479
485
490
487
489
500
506
518
533
520
501
502
487
469
445
442
451
482
537
574
640
718
810
900
975
1005
992
935
841
720
604
518
465
427
418
437
440
445
469
472
457
435
414
417
430
437
454
450
433
437
424
415
402
398
398
406
431
439
438
450
465
476
473
464
458
458
457
463
473
473
469
488
491
484
478
482
493
474
469
485
505
494
471
465
484
486
467
465
481
474
483
492
491
485
488
499
503
512
514
501
492
525
536
527
532
518
517
535
542
548
545
540
551
551
545
532
535
562
579
569
561
571
562
557
572
577
570
579
598
598
559
534
554
592
608
607
606
610
587
580
592
588
546
485
466
467
467
464
481
484
464
444
451
444
437
453
469
454
432
431
440
445
447
458
455
451
443
457
471
457
456
472
485
472
448
458
464
467
483
493
499
504
502
483
449
454
478
485
491
492
496
498
483
476
481
456
454
465
471
462
484
497
479
504
527
518
512
497
478
473
484
494
488
482
492
507
513
513
511
509
504
522
534
528
507
505
504
520
527
531
519
484
480
480
476
492
506
519
514
510
496
486
504
512
473
455
478
509
509
508
508
500
498
489
480
512
549
533
509
514
528
533
512
491
484
504
520
532
530
523
499
495
495
501
508
509
505
478
463
490
521
538
526
514
501
486
501
513
512
496
483
502
525
537
537
504
491
500
496
479
491
513
526
539
527
524
525
510
499
479
482
501
498
470
478
491
512
529
551
532
508
499
498
500
506
505
507
530
526
520
520
520
521
522
523
515
535
546
525
521
495
470
479
513
550
548
531
541
539
550
546
528
504
490
496
482
478
489
490
496
494
481
479
493
503
511
491
493
488
483
474
478
500
518
502
476
462
447
440
474
502
504
556
614
679
767
864
942
978
985
951
850
711
580
508
476
469
475
458
446
436
454
466
457
443
415
392
405
421
414
402
429
436
415
423
431
414
414
431
441
462
465
478
500
477
436
440
444
456
470
466
451
434
435
457
481
482
485
486
492
503
501
469
456
482
505
497
485
494
506
501
492
496
507
505
510
524
497
477
479
489
494
488
503
541
558
546
518
518
529
540
525
513
536
562
590
573
549
539
542
556
557
545
543
576
605
603
570
556
581
591
578
568
576
574
571
581
583
577
560
534
549
555
543
517
511
512
504
503
501
495
482
469
476
498
491
474
458
447
447
444
429
427
425
434
438
433
437
449
482
498
453
422
441
469
475
470
488
485
449
431
445
453
472
478
464
461
471
477
474
461
442
450
492
508
504
480
472
475
456
455
489
497
499
497
500
505
505
501
487
483
478
490
523
541
522
484
479
483
501
496
486
502
501
499
490
472
469
490
514
525
508
497
486
483
492
499
509
500
491
498
493
496
489
492
523
532
518
503
498
490
498
523
534
521
484
494
526
529
521
509
507
502
488
497
500
484
494
496
493
499
514
512
484
479
507
515
506
501
499
501
518
507
494
491
496
501
510
524
521
534
524
513
508
521
530
529
523
518
520
520
521
524
525
525
505
490
495
512
525
517
502
496
495
511
520
532
539
532
540
530
514
541
571
554
529
516
495
485
490
492
498
494
494
469
447
428
459
504
522
518
497
489
499
506
504
508
525
526
494
475
476
456
427
415
420
456
517
584
650
729
817
906
959
973
939
877
764
616
490
424
417
421
424
426
423
423
420
442
450
459
468
454
444
437
445
449
455
482
485
466
452
452
433
453
457
464
473
482
507
490
470
469
452
440
448
459
470
472
489
497
481
478
490
497
500
487
479
498
522
516
499
516
524
484
445
443
482
512
512
518
509
518
516
503
511
516
529
524
511
518
526
536
528
526
538
547
538
526
535
555
554
558
561
579
598
589
577
596
603
591
554
540
577
598
610
608
596
590
599
589
569
568
558
546
563
569
568
563
552
533
500
487
497
516
525
507
503
492
477
447
440
437
427
419
415
421
430
427
458
467
448
439
424
420
442
476
493
483
472
472
456
439
457
479
477
469
469
451
447
466
482
464
455
501
518
506
502
512
507
508
514
503
472
457
453
442
446
477
509
526
531
510
496
487
479
491
514
521
495
481
486
500
531
537
521
505
507
511
483
485
508
490
485
498
504
500
505
505
510
544
548
518
501
495
474
461
467
487
503
520
510
520
521
506
502
517
525
537
540
530
535
524
498
494
506
496
495
496
500
517
524
513
506
489
491
525
546
540
535
528
535
539
536
521
520
535
533
523
499
472
467
492
501
520
530
525
515
508
506
494
489
525
553
540
548
564
563
551
551
533
529
516
515
516
517
532
530
510
510
519
515
514
509
506
513
535
559
576
568
553
543
525
511
526
529
521
529
531
508
489
493
511
529
530
526
506
459
450
488
513
499
487
486
502
498
492
486
470
446
434
434
463
521
564
616
716
814
890
952
964
956
928
842
703
567
486
445
446
447
438
456
467
452
446
431
424
448
482
485
446
432
423
428
427
441
451
449
452
450
441
440
438
441
457
464
467
478
476
475
469
445
443
465
491
479
456
470
492
493
488
490
497
515
502
489
482
487
482
506
498
485
486
484
498
498
493
505
517
503
507
514
534
545
541
545
553
564
564
555
530
505
501
537
560
571
579
585
573
558
557
555
552
573
609
628
620
600
581
567
563
584
605
598
592
587
591
598
606
617
591
569
570
556
531
509
568
600
580
550
530
525
536
520
495
478
484
489
489
495
483
457
451
449
438
428
434
449
457
454
447
436
452
459
465
477
460
428
443
463
466
474
485
480
470
473
479
472
464
467
466
455
445
438
443
467
475
473
490
493
491
500
502
504
497
483
488
502
493
499
515
507
491
502
514
495
485
490
489
499
526
538
545
547
532
496
473
479
511
508
511
520
523
538
543
522
516
501
469
490
548
559
544
526
535
553
535
524
519
513
499
504
530
541
556
544
521
506
513
531
520
512
516
516
495
456
466
504
516
522
518
513
514
518
513
499
476
477
470
485
504
496
500
497
447
453
493
494
488
480
480
496
489
486
495
516
512
499
478
469
501
514
503
503
528
542
534
513
503
506
531
550
562
567
544
519
515
526
555
534
508
496
500
516
537
542
535
507
505
533
557
564
573
544
510
501
509
498
495
503
509
520
527
530
515
496
481
486
512
512
497
464
444
456
480
476
482
494
513
485
441
423
416
438
463
518
587
663
738
801
874
953
982
981
954
863
728
581
496
459
427
427
429
427
415
412
413
402
390
391
414
445
439
420
435
450
441
453
482
465
445
432
418
425
444
462
463
454
462
473
485
481
475
475
471
463
457
467
469
483
511
512
494
467
464
504
523
519
522
504
474
464
488
509
499
488
485
477
500
523
521
515
505
515
524
509
487
465
470
496
532
542
521
504
522
537
534
484
475
537
576
561
559
564
559
558
558
556
578
609
601
557
544
571
588
594
608
607
598
581
582
570
568
568
556
513
504
526
542
545
544
543
541
499
477
453
451
466
467
453
455
448
414
413
433
452
453
462
482
476
471
476
470
459
454
444
455
473
477
485
492
470
473
480
468
467
485
508
525
521
499
497
494
483
488
497
488
489
497
519
521
522
519
522
533
531
515
531
546
537
518
498
514
512
507
516
522
523
529
525
517
501
516
508
504
528
545
536
512
501
525
535
508
486
490
508
531
535
515
501
492
479
488
510
534
544
543
538
540
532
513
497
472
492
518
539
530
516
520
535
538
523
506
539
577
584
570
543
504
482
499
541
556
553
540
546
540
532
544
546
546
536
532
546
554
537
521
523
520
511
507
518
525
534
531
540
542
525
518
519
518
523
532
538
538
528
539
544
543
541
548
547
554
558
544
530
541
535
525
516
518
525
537
558
572
565
549
533
528
520
510
508
513
505
493
488
517
530
504
492
508
516
514
500
502
498
484
489
505
507
493
504
517
531
529
529
516
466
427
436
488
538
575
634
722
803
879
946
988
984
945
848
715
580
498
468
464
450
445
455
440
433
417
416
421
425
417
431
440
412
392
408
449
459
462
464
460
459
445
437
433
440
447
455
455
450
446
456
459
450
452
452
447
453
472
468
474
491
484
472
472
486
482
476
484
488
486
492
509
515
502
502
513
506
515
512
507
489
496
510
498
493
493
487
486
500
515
521
532
541
514
525
530
513
515
525
536
543
547
534
531
552
559
549
547
538
539
528
533
568
579
574
562
557
554
548
534
526
519
523
541
556
552
529
492
475
470
471
462
449
437
453
456
436
420
410
392
368
372
397
402
393
384
396
402
413
410
401
396
384
403
413
391
369
378
402
407
393
397
412
394
393
407
422
430
424
420
426
433
400
382
382
404
418
418
406
409
419
421
430
450
450
450
442
415
424
462
487
505
502
491
482
471
473
479
470
466
477
478
476
465
466
473
476
466
457
467
509
535
515
495
485
487
497
484
472
476
488
493
489
483
503
512
518
525
521
505
513
508
508
501
478
480
464
483
496
518
524
501
488
505
500
492
510
544
534
507
493
492
505
520
502
493
487
495
515
526
538
561
551
509
515
532
539
559
552
515
497
514
537
540
546
535
502
495
494
480
470
463
469
480
486
499
496
512
524
508
498
481
465
459
467
483
472
455
461
448
440
448
464
500
554
630
704
769
846
926
982
1005
953
842
699
567
482
422
384
396
404
428
461
460
463
452
440
443
439
437
440
433
430
422
431
448
439
425
442
475
491
479
470
478
479
489
478
446
437
450
457
453
453
454
477
495
493
484
472
467
482
501
508
496
485
478
491
503
513
507
501
490
487
486
508
520
529
536
538
519
502
517
524
531
506
490
469
474
490
493
491
511
536
554
561
541
541
543
545
551
543
535
553
575
558
547
574
589
582
573
587
612
605
577
574
586
591
586
565
536
503
502
516
542
560
528
487
485
495
500
484
483
498
489
463
449
445
443
442
444
440
434
459
469
460
466
450
415
407
426
463
477
477
474
454
441
444
458
468
457
453
452
458
462
465
475
480
469
475
468
465
480
486
485
474
479
490
484
477
483
473
460
476
486
476
475
494
524
509
485
480
481
466
471
497
500
489
502
508
489
487
484
493
512
526
518
507
499
502
497
498
518
514
495
471
457
472
498
519
518
496
486
480
486
481
477
494
507
497
479
475
499
515
502
504
493
490
508
522
506
486
494
504
499
492
506
512
508
526
543
549
548
540
522
521
506
476
475
498
514
530
522
511
516
513
526
539
537
547
555
551
538
528
515
517
523
515
500
493
482
483
484
490
497
492
494
507
505
489
490
499
511
520
513
502
509
515
489
461
468
474
459
447
454
500
554
604
660
728
799
877
972
1023
1023
956
855
707
594
522
476
456
465
462
460
447
423
420
447
451
420
414
420
428
435
443
446
453
435
436
456
470
460
450
452
461
468
473
477
481
475
464
463
465
487
510
490
468
479
486
491
506
506
476
474
479
481
471
473
495
492
490
488
494
501
505
489
495
518
526
526
543
528
527
526
508
512
518
527
526
521
535
537
528
537
532
523
525
529
548
575
584
572
551
543
580
603
575
542
559
590
578
566
604
614
594
586
598
624
625
618
624
609
577
558
546
534
531
542
556
551
536
516
516
501
477
468
468
473
473
468
470
470
477
482
495
469
448
445
450
485
495
481
469
482
500
494
488
473
470
462
468
455
424
428
479
484
471
475
485
491
487
500
513
515
523
526
514
506
493
483
482
493
495
482
472
474
506
515
510
530
554
561
528
507
497
496
490
479
494
519
517
517
506
497
514
516
519
551
564
559
536
494
489
501
509
512
527
536
535
526
510
524
545
541
518
505
525
535
534
548
563
561
542
509
508
504
514
527
547
559
553
540
527
528
528
513
500
492
494
509
551
563
537
519
537
555
557
545
536
542
540
550
558
561
557
567
571
556
557
552
530
514
543
542
523
529
540
554
564
542
527
549
582
585
572
554
553
567
553
546
554
559
560
557
566
563
557
565
593
604
592
571
578
595
590
561
561
559
553
544
535
541
542
541
551
559
559
553
550
553
539
527
547
557
559
573
555
538
543
549
561
568
557
544
523
519
517
532
558
587
638
714
793
869
958
1023
1023
1023
1023
956
823
693
598
536
509
501
495
505
508
521
534
531
528
512
494
481
482
504
525
532
527
524
525
524
525
544
547
541
537
537
541
528
516
561
570
563
593
605
588
563
551
563
557
557
580
592
587
586
582
574
577
581
590
596
611
613
602
621
644
643
624
618
617
624
631
600
611
646
646
627
619
610
618
633
637
638
628
631
644
654
647
653
671
682
680
677
685
702
700
686
697
714
730
714
694
697
713
729
731
737
725
713
707
717
709
690
684
691
700
711
697
678
661
651
639
637
647
620
608
615
624
606
600
600
592
587
586
586
584
585
571
569
553
557
572
603
610
606
598
571
578
600
593
594
605
602
598
599
610
598
601
598
615
633
645
631
609
618
614
606
604
600
594
579
586
601
616
623
621
613
617
642
661
646
618
587
574
612
639
645
638
631
626
623
628
632
640
644
633
625
609
608
615
621
633
636
626
629
628
619
619
612
600
597
651
667
637
623
604
594
599
596
600
619
624
607
585
584
606
615
591
588
596
608
609
607
597
598
612
613
604
593
608
622
634
653
646
602
590
599
590
572
564
564
561
583
601
593
583
567
571
593
587
561
569
576
559
534
550
577
580
580
584
574
563
567
584
609
612
580
574
578
558
557
548
545
550
554
551
541
554
558
550
535
539
559
558
561
575
545
519
507
517
531
540
532
523
538
570
561
543
556
563
572
562
545
515
501
530
546
539
513
499
508
523
519
520
508
495
473
453
474
497
498
465
447
434
467
481
477
456
449
458
457
466
467
461
427
405
403
429
476
534
572
630
710
796
891
964
974
928
852
749
620
518
436
399
385
374
384
375
354
350
362
372
353
337
326
338
346
352
349
348
345
351
362
340
319
326
358
373
369
379
377
389
407
404
372
354
377
393
373
359
375
394
383
358
350
344
364
382
386
405
397
361
344
353
349
333
344
360
355
357
360
367
383
403
411
397
382
388
395
403
379
350
350
382
406
406
387
382
391
396
399
395
397
377
358
365
380
396
404
389
386
404
419
437
462
460
440
425
421
432
428
427
435
436
433
421
415
412
395
370
356
365
351
327
327
332
328
335
325
310
296
278
259
286
302
302
303
286
267
266
273
283
284
290
283
268
277
282
267
265
275
271
263
256
249
268
282
308
322
314
318
310
283
276
285
313
341
346
319
311
308
295
282
285
305
286
258
287
329
349
336
311
301
296
297
307
321
304
290
302
327
322
311
324
338
323
306
317
332
317
306
322
324
303
290
286
315
340
347
340
323
281
285
316
351
355
344
338
324
319
322
338
351
339
309
292
294
307
312
309
297
304
341
353
341
335
332
333
333
336
324
310
321
337
341
342
331
332
349
371
368
351
357
368
363
343
337
323
306
328
339
338
336
343
335
329
333
350
350
349
370
354
325
325
349
368
393
400
410
398
384
377
382
388
420
431
401
363
356
368
376
371
354
356
363
364
358
354
346
352
369
376
358
334
337
333
349
384
380
360
369
379
379
372
371
390
406
399
391
365
339
318
287
291
331
372
436
506
576
635
691
757
812
814
777
705
589
477
381
314
291
284
298
304
313
322
319
336
376
368
342
327
331
352
364
353
354
344
345
353
365
373
371
385
387
386
386
400
395
386
391
398
424
408
372
361
389
412
423
417
397
372
364
369
354
367
405
423
429
425
425
433
417
398
411
432
450
443
443
433
432
444
460
460
463
455
450
438
444
462
464
474
486
501
506
493
473
466
445
419
436
470
484
487
491
498
501
504
508
510
503
510
527
548
552
555
533
518
517
523
534
518
521
533
551
531
491
496
504
484
468
475
471
449
434
417
424
419
413
406
399
384
368
365
370
375
391
427
431
424
417
408
413
418
411
416
410
401
405
422
439
452
463
483
455
431
423
424
434
453
476
481
483
474
441
435
450
450
450
461
471
464
443
443
460
465
485
509
509
496
486
477
466
471
469
457
453
480
505
501
493
500
504
513
506
482
474
475
501
509
493
487
508
508
498
492
474
489
527
535
514
507
500
473
474
476
480
481
479
480
495
496
502
496
497
505
485
454
472
527
563
556
538
517
526
533
517
505
525
541
516
504
514
507
496
500
519
528
546
556
566
581
573
555
537
511
492
483
482
495
514
513
497
499
495
487
501
541
536
495
489
496
499
501
516
533
528
530
526
519
503
506
525
513
498
467
458
481
523
574
604
640
742
842
931
993
984
959
876
750
595
490
437
420
422
413
436
459
455
463
479
468
451
448
470
487
486
482
495
484
459
463
476
468
474
506
539
542
521
513
495
480
480
487
497
496
489
504
510
504
510
517
507
516
528
544
531
496
497
511
509
513
524
531
541
548
536
527
530
539
572
600
578
554
554
561
540
521
522
533
556
570
577
560
559
579
586
573
572
556
564
565
559
572
591
603
599
599
596
612
613
612
624
626
609
595
609
608
628
660
645
630
628
637
615
603
606
616
607
594
581
583
566
537
520
524
515
500
503
512
518
530
520
513
518
515
497
491
507
503
494
519
539
543
545
537
528
518
501
487
489
499
490
487
487
529
559
567
582
559
507
496
550
554
523
520
518
509
530
547
557
560
559
561
556
550
554
545
530
560
575
560
570
576
572
576
595
597
593
603
614
605
583
565
561
560
550
552
566
570
574
573
568
575
582
578
574
587
598
603
595
597
588
581
607
634
627
606
595
586
580
571
564
583
600
599
591
571
575
587
577
561
555
586
635
635
632
637
624
604
602
587
576
602
618
616
608
594
591
610
627
639
644
643
637
638
633
651
661
639
628
615
581
572
572
566
566
584
586
574
582
594
588
590
575
579
584
592
609
617
626
614
600
604
601
605
607
609
614
599
584
579
556
548
585
635
696
765
856
945
1015
1023
1023
1023
962
822
692
617
569
520
509
538
551
564
557
532
526
496
504
552
565
553
552
559
544
525
530
556
574
571
570
586
578
548
537
536
535
557
562
557
560
590
598
584
564
580
594
603
602
589
581
572
592
608
608
606
615
618
614
605
598
605
612
605
584
600
634
647
638
618
631
643
643
630
641
660
649
623
608
629
645
639
636
633
651
657
652
655
656
676
705
706
703
708
699
668
661
675
690
697
704
708
676
641
663
704
732
725
715
709
686
648
661
689
674
642
637
632
628
624
626
610
599
583
572
585
590
588
583
568
554
533
548
572
586
609
604
590
568
561
565
566
577
581
576
557
543
566
572
547
545
567
583
597
603
584
570
560
571
588
597
604
575
566
570
586
585
579
589
585
580
584
585
594
610
616
607
587
574
584
590
594
597
577
556
586
585
580
580
590
597
585
594
595
575
553
562
596
586
561
580
589
597
600
589
568
548
537
545
568
587
571
572
574
556
570
592
599
569
550
559
575
596
583
565
568
536
533
532
523
530
549
580
603
591
562
538
532
546
543
526
516
543
553
551
545
566
564
569
570
558
548
538
514
500
521
541
553
546
556
571
559
535
535
542
555
556
538
521
535
557
547
520
515
501
437
465
517
525
532
537
511
477
462
477
510
516
492
492
484
490
508
515
512
494
477
475
486
482
451
411
402
431
432
433
466
517
576
641
709
788
858
925
962
947
885
771
639
524
443
420
398
383
369
368
379
397
401
401
417
409
389
378
378
392
387
370
360
368
392
398
386
377
401
407
410
417
410
396
410
425
430
406
377
382
402
397
381
362
379
413
435
427
414
422
416
413
422
416
411
411
398
399
400
424
447
463
477
466
448
440
429
415
422
429
430
427
421
420
429
453
448
435
427
459
478
459
452
436
414
425
443
446
458
481
476
474
471
469
464
483
512
533
538
507
494
499
509
504
481
484
509
509
485
457
434
425
428
423
413
417
409
399
393
392
378
371
386
399
390
377
351
347
360
371
381
385
368
348
375
383
386
371
352
346
365
385
393
392
377
380
388
397
406
395
364
353
361
372
389
399
400
386
386
389
392
397
415
425
414
412
398
390
399
413
406
389
394
421
433
411
409
438
439
415
424
452
446
436
429
416
425
424
411
403
422
446
448
419
411
406
412
431
436
436
434
436
443
437
436
421
402
405
405
399
412
423
426
432
435
436
445
456
443
426
438
451
457
470
451
417
406
415
419
418
424
431
429
406
401
418
433
439
446
442
428
407
429
448
440
449
446
433
451
478
480
460
441
443
451
441
423
426
453
442
444
453
439
436
455
479
471
448
448
447
461
455
430
428
441
444
445
453
481
495
496
493
479
483
486
474
464
467
469
466
466
450
461
495
515
494
461
449
477
487
481
486
502
490
475
455
432
432
436
436
431
426
430
450
465
442
422
434
458
465
461
461
464
467
464
456
446
446
435
446
452
450
447
495
566
633
709
803
890
942
940
913
881
814
697
568
467
420
393
384
405
433
449
424
408
399
360
361
396
425
428
405
405
424
432
427
404
389
393
400
399
418
454
446
441
424
414
415
406
394
397
419
453
481
469
442
438
449
461
442
439
461
478
486
481
482
488
488
470
457
457
473
475
467
484
502
478
486
492
488
486
478
467
479
484
493
505
531
539
527
518
512
502
488
483
505
543
563
569
550
546
549
553
549
551
562
559
549
559
571
556
571
584
596
601
570
544
542
548
557
575
587
579
548
532
535
549
543
530
530
517
508
492
472
452
431
417
456
471
460
450
446
447
441
448
460
448
444
457
460
476
501
486
456
464
487
494
483
486
483
472
465
474
484
486
488
489
482
481
476
479
491
491
499
516
516
479
464
488
503
519
499
493
508
507
493
466
463
505
518
518
522
507
499
514
518
513
519
520
519
518
517
512
506
500
505
512
519
515
514
541
565
555
535
525
518
523
508
494
496
525
556
539
541
547
518
518
528
526
520
519
527
531
536
535
519
507
502
511
528
517
515
510
520
511
508
516
531
538
525
517
513
522
512
521
537
559
566
552
548
536
519
515
519
510
513
523
517
523
538
525
525
536
527
504
490
521
547
544
534
516
513
531
530
542
531
522
531
568
561
532
538
537
533
521
518
516
504
499
521
547
560
569
551
527
519
529
528
516
530
571
569
548
534
541
549
536
525
531
540
555
578
587
592
568
534
534
539
538
532
536
551
552
544
535
539
527
519
534
533
510
507
513
508
529
537
537
525
524
531
528
528
518
524
543
520
506
492
470
465
471
479
485
516
577
660
757
851
930
988
990
963
949
884
752
637
568
519
478
462
486
510
514
498
469
432
406
422
436
440
443
449
449
443
449
462
466
446
433
439
460
477
493
487
482
483
477
473
475
492
499
488
482
508
534
528
510
498
506
501
500
509
510
508
495
502
526
520
508
493
485
489
510
509
497
512
540
553
540
519
509
521
535
567
567
547
542
550
553
567
578
570
542
544
554
554
528
521
552
574
586
585
595
597
589
591
600
587
581
586
600
592
603
612
620
615
617
627
615
593
578
580
591
594
598
596
578
561
547
529
519
521
507
491
486
481
475
488
508
488
473
478
500
500
481
490
494
505
501
492
501
503
482
482
503
490
474
476
474
475
474
489
498
490
496
510
514
505
491
490
491
510
534
542
546
543
510
489
492
502
509
517
529
511
487
514
532
532
553
560
559
550
517
498
488
475
489
512
520
519
525
521
515
519
522
515
498
505
530
534
528
535
549
556
551
547
538
535
538
550
547
519
501
498
512
531
546
547
542
541
550
565
557
538
510
519
544
558
547
519
513
508
519
536
536
512
510
518
535
561
578
565
553
554
546
522
522
530
537
556
562
564
552
539
525
499
482
519
550
542
539
543
556
546
542
546
539
528
520
514
536
552
550
543
545
554
562
558
558
549
549
551
549
551
539
521
514
508
535
563
564
541
532
538
538
539
543
553
559
542
534
546
554
574
573
574
570
541
532
543
549
545
547
547
559
564
559
569
566
556
558
528
508
518
532
536
551
553
543
539
534
516
494
506
530
516
530
528
513
513
536
550
542
530
504
497
502
506
511
516
509
501
495
519
555
599
677
758
841
930
1002
1021
998
942
823
674
578
535
503
489
480
478
474
492
496
474
445
458
476
476
456
430
436
448
472
475
457
456
447
453
469
476
485
476
478
471
448
433
443
465
472
485
507
509
505
507
505
510
492
473
480
492
475
470
485
511
544
569
555
538
537
536
531
544
530
502
492
503
522
536
544
539
532
540
557
556
558
558
536
507
517
538
546
543
562
587
596
578
551
557
573
581
581
560
568
588
613
638
649
633
591
579
574
570
569
610
636
639
639
630
602
597
607
606
603
571
552
560
545
520
515
513
513
509
509
527
518
499
487
486
492
505
520
505
489
482
456
462
492
495
500
491
468
467
438
446
483
496
495
491
489
479
475
494
508
514
531
536
549
551
521
496
492
492
502
522
527
522
516
509
496
496
497
502
504
507
515
519
512
520
530
529
508
496
501
515
532
529
508
522
552
552
537
531
533
554
558
532
503
514
542
540
536
538
531
532
540
550
537
501
494
498
504
525
534
524
520
530
530
517
510
520
538
540
535
546
541
527
509
516
528
522
520
514
515
534
536
519
517
527
525
510
503
518
524
516
520
511
495
520
544
533
518
514
521
527
523
514
503
524
540
543
516
493
502
541
561
556
541
540
541
536
530
523
521
532
548
529
487
498
530
526
516
514
501
474
482
509
521
504
505
543
574
564
544
524
525
531
538
545
545
560
561
548
541
538
546
541
539
553
570
587
576
559
530
523
517
523
539
539
507
478
469
485
507
516
497
473
473
490
498
506
516
514
511
498
485
467
479
498
510
502
476
447
445
455
447
449
495
552
616
694
770
854
919
955
945
923
891
807
687
570
479
433
418
414
419
442
453
458
451
440
406
387
410
424
413
408
407
416
426
423
420
436
434
410
400
404
425
455
455
441
422
424
436
456
474
471
452
439
447
414
413
434
444
473
486
474
467
485
504
506
518
519
509
513
515
521
517
505
492
476
486
501
522
534
537
547
551
535
535
524
509
496
505
540
551
542
539
535
543
556
567
575
580
587
569
557
564
584
583
576
577
593
608
596
608
646
647
623
612
636
606
567
567
592
609
593
557
541
560
573
578
547
529
525
531
521
485
454
461
486
496
497
496
481
471
466
474
479
454
414
397
404
415
434
453
455
465
477
494
498
462
428
451
480
490
496
495
469
465
464
472
488
497
475
464
449
439
468
486
473
474
495
508
510
503
495
501
510
518
522
527
506
494
489
499
499
490
493
503
482
471
521
554
534
486
461
470
490
530
530
513
512
500
487
501
508
489
491
531
542
531
528
499
462
443
453
496
515
507
521
557
565
519
476
484
498
500
487
475
476
479
480
485
498
494
507
517
504
496
506
506
525
531
516
498
493
498
500
497
496
498
515
533
552
551
534
515
500
473
458
480
493
495
508
500
498
505
508
519
520
515
504
488
484
483
496
503
519
549
540
530
510
482
516
568
573
542
520
520
518
483
462
492
507
525
543
542
556
541
507
494
482
495
527
557
558
534
507
516
544
533
497
480
468
482
503
536
552
532
499
495
499
487
467
474
491
475
476
504
493
493
498
503
502
487
466
432
405
415
460
496
551
619
692
756
808
835
893
962
954
920
847
721
580
516
507
468
434
415
414
434
440
433
413
422
448
457
438
415
401
418
442
444
444
443
441
422
401
432
454
470
481
464
447
433
432
451
457
468
469
475
477
488
472
456
445
429
442
468
468
474
492
486
482
472
473
478
484
499
491
490
498
491
482
445
442
476
491
492
495
518
525
533
541
547
541
532
526
523
518
513
531
529
535
530
519
521
539
557
558
548
549
563
581
597
578
554
546
535
530
540
540
567
600
619
645
645
629
591
561
539
529
525
526
521
536
532
525
509
495
502
497
471
446
445
440
440
455
473
462
431
421
431
427
415
417
411
415
432
447
442
452
457
472
457
452
456
466
480
470
455
467
473
480
485
470
470
473
466
483
495
488
481
481
487
484
477
481
477
463
478
495
502
503
513
501
494
506
509
517
510
508
514
499
502
508
505
501
486
480
481
485
503
514
498
480
495
537
528
501
496
500
498
491
461
463
492
512
505
478
480
484
491
502
497
514
525
498
475
481
506
525
527
515
514
494
458
464
497
507
479
469
486
508
521
538
511
495
494
485
496
524
515
501
502
499
518
515
511
512
523
519
510
504
490
511
538
536
520
533
533
528
515
522
515
531
537
553
555
533
515
527
517
488
474
471
509
521
514
512
503
513
508
515
527
549
566
572
567
562
542
515
515
528
523
519
526
513
510
525
533
540
542
545
558
577
591
584
564
520
488
481
478
481
488
485
470
478
492
489
486
487
504
526
515
492
479
472
470
465
484
494
499
494
478
457
461
457
465
525
604
663
748
832
930
994
1003
973
903
757
614
526
469
426
403
420
435
419
417
444
465
484
483
435
403
408
425
422
399
401
422
393
368
386
412
433
427
440
467
470
450
431
422
438
457
456
445
442
448
448
452
459
452
465
466
480
488
484
469
451
431
430
433
441
469
487
493
487
478
463
454
450
461
478
479
481
498
500
485
469
466
473
484
503
522
511
495
519
558
564
539
557
561
532
526
552
570
571
555
524
515
527
519
532
546
564
569
571
581
554
544
579
607
624
642
652
638
593
558
541
532
531
526
513
497
491
476
434
421
430
446
461
460
453
447
461
479
471
470
479
467
433
442
464
463
440
426
410
415
424
438
455
463
457
435
438
440
446
441
442
451
458
476
493
500
507
480
466
462
458
432
435
454
464
473
489
491
488
478
473
492
492
504
517
515
505
471
451
451
449
456
479
491
472
475
497
514
517
503
481
480
495
512
519
509
490
477
473
471
490
498
508
534
527
513
517
495
464
472
481
480
477
469
488
516
516
510
507
491
478
495
507
509
511
488
470
474
496
509
507
501
494
476
472
497
512
516
535
532
511
488
492
505
509
497
487
472
474
505
522
506
507
510
507
512
532
544
538
531
526
529
530
530
522
533
538
541
534
505
495
502
515
521
518
512
517
528
551
573
568
543
513
509
497
483
483
487
499
504
502
522
530
495
463
474
498
502
484
503
526
508
493
504
506
506
525
549
550
537
482
438
418
437
481
544
600
652
710
803
906
985
1005
979
912
802
661
533
444
415
419
430
439
453
451
453
440
439
445
454
458
453
445
453
451
452
443
438
458
457
451
456
454
465
480
473
456
469
483
481
491
502
505
497
489
480
469
442
443
471
499
510
513
523
526
514
496
499
505
498
501
501
504
522
531
528
508
490
495
483
476
490
503
524
531
520
512
505
497
528
570
583
578
566
541
526
538
543
551
553
553
557
570
575
562
552
554
554
555
556
568
589
622
613
598
586
594
606
600
599
603
578
573
567
553
557
571
561
535
527
522
490
479
484
483
479
495
485
472
440
427
459
478
487
475
445
413
412
430
433
425
436
431
432
443
460
502
521
510
490
454
457
477
482
474
440
421
442
474
487
475
464
462
470
485
492
494
488
468
458
456
458
454
477
493
486
493
525
529
519
521
497
476
484
507
497
485
485
487
496
495
497
480
475
487
500
494
483
494
512
515
489
465
478
493
495
477
481
472
462
462
481
524
533
521
502
490
470
454
469
491
505
515
517
528
512
480
466
457
461
474
503
519
494
489
485
487
481
489
491
498
510
530
531
488
456
471
486
482
476
477
504
520
513
498
492
505
526
516
477
476
487
514
530
541
533
530
538
532
520
502
478
491
522
502
480
464
461
469
469
469
504
522
511
504
496
484
471
468
481
477
475
468
473
476
462
442
444
461
441
408
435
471
512
575
664
755
851
930
976
969
933
870
738
598
494
442
420
422
422
419
440
462
467
457
434
432
445
435
427
417
412
420
456
455
400
380
397
431
467
459
427
428
450
458
449
446
452
451
436
404
404
455
473
461
472
495
507
493
484
479
469
456
455
489
494
472
469
471
473
464
458
482
477
488
523
526
495
486
483
484
493
503
502
504
502
509
525
540
532
525
522
518
502
500
517
518
508
508
539
570
560
557
565
553
546
566
584
585
581
574
582
579
564
571
573
567
575
574
574
595
591
562
522
505
504
496
493
486
493
509
494
459
467
492
485
450
427
434
459
461
446
447
457
440
434
432
421
416
419
431
445
456
464
473
453
424
437
464
477
483
483
467
454
457
468
472
479
491
472
467
457
435
473
521
522
502
475
469
463
483
506
513
503
499
491
489
479
479
474
482
488
483
499
495
499
488
499
505
486
472
467
486
516
500
493
501
476
472
520
536
517
505
499
509
511
494
480
486
488
489
484
469
480
470
474
499
491
474
481
508
514
495
503
521
530
530
510
518
534
529
495
483
489
498
512
521
516
500
500
495
479
471
485
489
517
515
490
489
518
519
519
514
489
481
479
489
521
527
528
513
496
508
507
503
492
487
479
482
470
461
491
512
518
521
504
480
483
506
511
499
517
544
549
549
556
570
548
517
496
482
485
488
504
528
520
477
488
518
497
491
499
498
484
484
487
488
455
460
492
528
518
492
475
470
475
471
475
490
482
475
473
481
484
467
457
436
430
446
476
512
570
614
663
782
881
940
988
998
938
813
675
568
492
445
413
413
427
440
434
407
405
411
411
428
427
419
424
432
420
412
421
418
415
408
379
389
420
429
423
415
420
429
429
422
422
419
419
428
450
473
474
471
471
459
436
435
464
478
470
466
469
453
425
447
457
454
462
475
488
478
459
455
472
492
486
486
492
478
453
478
548
554
563
567
536
512
509
500
504
510
517
516
527
524
522
533
549
569
578
558
516
507
546
578
594
599
601
618
598
568
560
564
555
537
529
520
550
572
572
565
568
562
567
542
504
500
504
508
510
497
467
458
468
460
427
410
416
425
438
449
448
469
464
462
447
435
444
478
486
488
468
449
457
467
478
477
466
481
489
489
495
466
458
468
483
445
430
455
499
520
512
513
497
474
479
490
469
460
476
476
503
513
520
519
509
513
532
533
513
494
492
493
487
502
492
490
503
535
548
534
527
500
509
529
547
546
516
484
475
481
494
498
512
528
523
486
486
500
493
513
534
543
540
517
471
480
525
526
525
517
526
543
548
521
504
516
521
517
515
504
501
500
496
504
523
519
535
530
498
478
483
502
508
495
508
559
569
542
506
511
511
501
496
496
500
477
454
445
453
468
473
504
520
526
528
538
555
565
553
547
537
539
524
507
508
521
511
485
473
496
510
484
454
477
531
540
519
501
495
517
519
504
504
512
509
539
549
521
513
500
487
497
504
522
540
537
515
493
507
523
540
543
558
556
538
527
523
537
544
552
534
491
477
493
509
514
523
525
516
494
490
484
476
480
498
520
517
488
456
446
462
477
488
508
517
527
531
520
503
472
466
457
436
406
421
466
516
552
612
713
808
888
966
997
967
897
816
659
543
503
475
477
469
461
453
449
471
462
445
431
416
408
411
425
424
420
438
463
471
452
426
418
414
454
486
493
478
463
473
473
473
477
455
448
474
507
507
502
497
497
496
491
486
478
474
468
469
474
491
474
466
444
427
449
506
525
543
560
551
556
553
545
519
513
519
527
517
489
482
500
513
515
512
515
519
527
525
507
525
567
588
583
576
585
583
572
549
549
573
590
608
619
617
601
581
579
596
604
592
569
580
604
609
583
559
563
561
547
548
531
490
497
540
547
520
509
489
494
520
531
501
467
458
442
464
477
451
420
400
426
472
506
486
463
462
460
461
449
459
473
506
512
495
491
502
487
469
456
459
497
493
479
471
475
477
453
462
495
509
512
518
518
507
513
534
545
530
516
502
487
493
501
505
504
500
474
473
507
526
528
513
486
463
474
489
516
528
530
534
529
509
503
524
533
525
526
539
532
507
476
481
512
502
481
489
526
553
556
543
537
532
537
533
531
522
500
486
485
488
496
510
501
481
488
516
524
506
495
529
560
560
542
525
520
512
512
521
518
512
484
478
508
528
548
565
586
564
538
536
531
525
517
521
522
524
528
512
504
510
519
544
542
528
524
521
525
537
534
517
492
497
516
518
511
503
559
579
559
554
538
527
530
534
543
532
519
507
506
509
520
525
528
529
521
516
526
531
538
541
540
541
541
548
554
563
568
560
558
570
576
574
566
538
521
524
529
519
520
513
511
509
502
484
488
489
491
508
520
506
491
489
501
532
563
567
542
523
510
500
504
506
495
470
448
426
438
456
526
616
706
796
886
953
993
1016
978
893
782
641
520
455
425
415
424
446
444
448
497
511
483
452
431
416
416
446
466
454
453
474
492
494
479
458
447
450
453
442
443
475
487
483
490
492
488
487
487
486
475
452
457
479
486
497
497
487
470
481
493
487
497
546
548
542
547
546
532
501
493
510
512
504
508
502
512
513
529
539
516
509
512
526
555
537
539
557
559
553
567
566
541
527
530
548
588
623
605
559
543
552
564
580
594
605
604
605
587
582
604
593
582
567
560
585
603
613
611
607
588
555
542
534
529
516
510
511
513
501
488
485
483
471
467
462
452
441
449
467
474
471
463
464
444
448
460
462
458
449
447
448
437
435
458
465
482
482
479
489
498
512
506
485
482
487
477
478
497
514
502
488
484
498
505
502
507
496
482
499
493
485
491
494
494
494
503
530
535
526
515
521
530
521
479
453
482
510
520
513
517
525
517
521
529
549
548
530
505
492
488
490
492
490
502
511
524
534
540
530
514
504
507
487
478
501
515
501
495
534
563
549
531
523
529
496
470
468
458
473
509
521
540
553
524
509
518
532
525
514
521
522
513
503
499
508
520
503
494
486
489
483
482
504
522
536
537
526
527
519
506
490
473
493
511
524
526
521
526
517
506
508
521
528
528
521
522
524
530
527
526
514
511
511
521
538
546
516
499
497
500
519
520
516
526
517
512
509
505
501
494
483
476
476
478
477
506
520
519
509
503
491
482
475
493
499
479
463
469
488
476
464
456
442
444
464
526
586
648
730
822
907
961
997
977
890
754
608
514
448
409
395
407
426
441
431
430
442
435
441
457
450
429
417
420
424
400
414
441
442
445
442
410
422
437
423
417
447
477
467
447
462
484
492
478
462
452
447
452
459
470
471
469
443
446
491
492
484
482
474
467
459
469
497
504
497
489
500
498
492
490
509
518
485
470
490
503
508
501
500
507
527
515
521
553
546
521
513
537
554
540
531
542
566
566
570
583
575
553
561
581
578
572
601
620
600
561
562
568
564
551
563
563
568
569
568
559
546
534
519
501
496
478
465
482
496
476
456
446
449
471
477
457
434
432
437
452
454
453
448
435
443
461
452
429
426
445
465
470
462
462
469
466
454
463
478
476
488
503
499
490
484
472
459
460
484
500
522
521
520
500
485
488
492
482
493
503
520
504
490
489
493
477
476
495
492
507
516
518
510
529
524
522
520
518
529
520
501
499
510
509
505
508
518
521
514
503
501
512
516
505
487
460
489
490
498
525
523
512
505
492
491
493
501
506
524
544
540
497
494
497
485
469
475
517
504
507
515
515
514
496
474
488
495
499
506
518
515
510
516
518
520
506
495
510
518
513
483
500
541
561
587
582
532
500
495
503
509
511
513
509
507
516
521
531
518
514
496
489
503
517
521
510
512
512
497
500
531
548
545
531
529
531
531
549
529
502
498
507
514
521
530
515
503
526
542
550
548
539
526
505
505
512
507
510
508
494
484
484
477
482
517
521
516
529
530
508
479
480
491
486
487
486
475
487
488
491
498
512
510
494
481
456
426
422
456
495
542
604
666
725
801
882
953
965
930
875
788
672
565
495
455
447
436
440
450
445
447
454
446
417
402
401
399
414
426
422
419
437
451
448
432
413
428
434
429
420
418
435
442
447
469
480
475
465
474
480
456
439
443
457
470
469
463
467
477
494
490
472
468
484
490
489
484
498
511
511
506
503
507
485
466
480
503
524
522
502
493
494
505
512
520
532
545
536
513
502
513
528
543
549
537
518
507
518
536
567
599
601
587
585
608
586
561
561
574
585
579
590
601
579
569
561
542
549
566
585
579
565
548
533
506
494
504
504
501
505
495
466
432
438
446
454
469
478
442
412
403
399
398
430
461
470
461
444
437
446
461
469
477
486
494
489
471
463
481
492
478
461
454
461
464
465
464
465
480
503
525
526
497
472
461
484
496
477
457
461
463
465
478
490
484
487
493
486
487
502
512
494
487
492
499
514
524
497
479
502
510
502
493
500
504
483
476
491
506
524
522
520
522
516
513
517
544
555
550
524
504
498
497
486
467
459
483
524
535
510
503
493
476
480
481
493
496
491
493
489
507
528
529
517
506
498
507
512
502
503
520
508
491
491
510
516
515
518
519
506
495
494
497
511
525
535
529
534
532
536
546
531
497
474
478
494
475
471
461
479
512
528
524
528
528
505
505
497
504
514
529
542
546
557
541
519
508
505
497
493
485
471
494
535
565
583
562
530
519
523
521
531
527
517
519
534
526
516
499
480
470
480
486
482
483
500
489
479
469
480
480
480
491
495
482
483
500
517
502
488
488
476
465
459
469
469
458
493
549
601
669
739
840
944
983
978
942
839
673
504
428
416
423
423
405
391
405
436
447
451
461
461
422
398
394
399
397
395
407
425
424
401
389
400
441
456
451
441
428
441
450
435
429
446
452
445
449
461
475
472
464
459
452
467
468
475
480
491
495
487
488
500
482
470
481
498
494
494
508
513
506
504
501
494
525
547
559
541
513
495
504
523
530
535
533
533
524
521
515
518
537
553
556
558
566
580
587
572
557
565
577
568
556
571
583
596
597
585
604
642
648
634
603
567
542
538
554
569
562
548
538
533
508
485
487
486
479
495
501
489
469
462
477
476
476
474
487
483
477
485
469
458
452
435
436
436
445
451
460
466
485
482
481
480
479
468
464
475
476
477
470
483
506
510
514
513
499
487
494
494
500
498
488
494
497
489
489
470
469
474
494
516
528
528
511
506
503
484
490
520
522
509
513
530
527
519
511
511
511
519
527
518
517
536
537
514
494
500
498
509
528
533
528
501
484
477
480
504
500
491
489
501
524
528
513
498
493
500
512
526
543
551
535
520
516
510
485
496
526
536
535
534
526
518
519
531
527
524
513
505
515
528
514
503
514
525
542
542
523
505
488
509
527
514
503
504
511
521
530
534
531
535
515
514
532
537
539
538
540
532
522
525
508
494
507
525
533
538
546
552
555
538
546
550
544
515
508
520
498
492
494
495
501
508
499
478
483
507
525
511
514
527
524
508
499
485
481
485
488
479
458
448
442
451
484
512
556
610
683
772
840
894
944
951
916
868
783
655
535
457
445
445
450
454
459
457
460
454
449
438
430
437
445
452
445
439
443
451
464
468
467
465
465
469
478
486
488
489
495
495
495
485
483
482
476
471
464
468
454
435
453
494
497
494
506
504
521
529
526
520
509
504
499
502
493
495
506
511
510
510
512
511
516
527
526
525
514
519
520
521
520
521
539
549
559
566
571
562
562
575
564
554
560
559
554
576
613
624
621
614
593
583
580
575
570
564
581
587
577
581
605
609
613
616
578
555
542
545
549
550
550
536
519
509
493
481
489
488
481
469
463
463
464
465
471
474
463
458
479
471
454
440
454
470
449
451
473
478
484
473
459
457
470
475
466
469
478
488
486
482
474
452
447
463
466
481
511
512
489
484
497
525
514
498
498
503
502
515
508
507
487
496
527
535
506
473
457
473
506
510
490
487
492
502
509
514
517
517
511
501
500
491
492
520
543
534
523
522
505
490
508
523
502
480
486
511
518
504
497
490
490
489
478
476
505
523
506
482
480
510
542
538
519
506
510
532
550
534
537
533
531
516
505
504
521
537
550
545
550
575
583
562
544
577
618
618
595
565
542
539
542
550
569
571
563
567
582
584
569
556
545
528
498
524
543
551
566
563
536
509
515
537
541
520
505
500
494
478
461
454
472
511
567
615
663
758
873
954
964
916
862
752
608
511
445
404
380
375
387
403
409
396
390
395
411
413
411
415
386
389
396
391
399
407
413
409
425
432
411
428
431
444
451
445
432
417
433
452
462
466
465
478
484
474
487
504
486
456
445
461
483
498
515
512
498
496
517
528
518
513
496
505
518
527
523
509
518
522
519
516
498
509
533
520
521
527
512
513
517
517
537
552
560
571
574
579
584
572
572
572
572
567
551
541
563
588
598
581
567
580
595
577
562
569
558
550
557
566
578
570
541
536
528
522
509
502
499
495
486
473
455
451
458
439
434
461
473
453
434
430
432
433
436
453
460
442
416
433
452
454
453
466
469
463
461
459
464
464
467
453
435
440
482
495
486
472
469
470
464
466
487
491
488
485
498
488
485
506
498
477
468
470
480
500
510
516
522
524
517
481
447
462
486
518
529
523
508
494
498
477
480
498
519
529
520
501
489
463
459
514
534
535
533
537
534
516
505
508
508
500
498
498
505
502
495
496
493
495
495
489
485
506
518
504
490
488
501
504
510
518
507
497
498
512
519
527
509
490
487
488
482
487
493
502
504
501
498
495
503
506
502
483
492
522
534
537
535
523
524
523
515
523
539
546
539
536
545
540
538
553
568
558
559
562
547
521
506
504
511
518
525
537
543
537
507
487
497
508
519
532
533
525
522
512
502
525
545
540
511
475
458
472
504
515
534
580
638
701
759
839
928
987
996
963
874
719
557
485
455
441
436
437
466
476
487
484
461
439
442
442
436
434
429
421
413
426
435
428
429
428
437
457
470
464
462
477
512
507
461
440
457
464
463
460
456
475
487
484
483
496
499
490
494
504
515
519
506
499
499
506
510
521
544
574
560
530
504
527
542
527
498
482
482
509
516
509
505
514
516
534
538
535
541
556
563
546
537
528
531
541
540
559
590
596
579
568
563
570
574
573
585
588
564
579
601
604
592
592
601
609
585
569
561
545
542
551
548
525
500
500
498
502
525
515
464
448
450
455
455
455
467
472
468
471
461
461
471
459
443
452
462
466
467
447
427
426
440
460
469
470
491
510
513
489
482
496
499
507
516
494
486
493
492
495
490
478
473
493
510
504
511
515
504
490
495
504
513
513
518
502
499
497
505
516
512
503
509
521
536
532
498
495
504
510
507
513
517
505
506
505
505
513
521
520
509
512
525
516
504
508
494
503
509
534
534
520
506
508
499
485
508
538
528
519
527
527
517
505
503
513
520
536
537
516
514
506
507
513
530
533
528
511
505
493
495
506
518
523
518
519
528
527
513
499
507
535
539
532
542
545
538
534
527
522
518
519
529
531
533
551
553
524
512
518
526
534
546
542
549
551
537
534
550
567
569
577
577
560
545
535
527
511
504
520
556
565
537
510
507
512
512
510
519
529
527
538
563
551
522
514
516
513
506
493
516
532
545
529
504
483
479
502
563
630
674
714
780
874
959
1004
1023
1002
904
765
630
536
502
473
458
452
455
460
473
485
491
484
481
476
455
444
455
454
458
474
479
478
476
472
486
492
479
469
466
477
506
524
511
492
487
501
507
519
533
522
518
504
495
493
510
522
509
522
524
525
526
534
527
526
529
537
557
574
557
539
525
521
541
555
561
546
530
539
551
555
567
585
572
542
527
539
550
571
581
582
579
591
603
600
594
595
599
598
602
605
603
585
604
628
616
615
625
615
614
609
625
646
646
642
646
640
640
621
590
575
572
564
557
553
546
539
523
509
526
531
510
494
502
514
510
501
506
497
493
484
485
482
484
492
475
479
487
479
490
514
524
515
514
504
494
494
506
505
490
490
525
552
561
532
500
490
498
509
520
530
536
527
519
505
513
532
541
525
514
523
527
523
524
531
532
535
549
545
521
516
531
542
546
528
516
536
552
547
532
529
547
557
554
547
521
513
532
536
523
525
527
517
521
527
518
531
542
544
546
550
548
536
527
505
513
535
541
526
499
498
539
554
540
533
536
521
517
514
506
521
534
541
539
515
518
530
527
539
551
557
532
502
502
497
513
542
541
535
534
533
540
540
528
525
527
524
526
512
507
526
537
541
527
505
504
516
522
532
535
535
525
524
524
528
536
529
534
526
528
549
552
528
530
534
513
516
534
544
542
543
537
532
527
531
537
543
549
542
523
515
508
512
503
487
488
496
496
488
494
491
489
489
480
481
505
530
526
501
484
475
467
449
462
460
482
493
484
470
450
436
445
482
514
570
635
726
834
934
976
964
916
856
759
625
517
443
396
380
396
415
428
448
470
463
443
428
413
404
398
406
405
406
407
427
415
413
424
427
427
427
438
449
448
439
427
429
450
448
428
421
434
454
457
446
443
447
461
460
455
444
442
443
440
434
452
468
472
475
482
478
466
457
474
485
476
480
480
504
503
478
460
461
465
468
470
489
511
515
523
508
510
519
509
485
480
490
510
532
529
503
521
540
555
564
568
560
535
534
529
519
512
534
544
552
539
525
520
516
534
549
548
519
504
518
515
506
494
482
465
459
451
448
440
431
416
388
397
412
423
431
425
418
420
436
428
414
404
400
362
333
364
408
445
456
443
435
430
421
428
426
424
409
390
420
436
424
427
436
448
459
451
436
441
425
428
420
405
425
449
441
438
441
453
461
469
455
440
448
460
471
460
452
461
470
465
449
441
449
454
435
420
420
448
481
482
472
470
478
494
484
456
446
447
450
444
439
441
456
465
454
446
454
458
442
437
451
462
466
468
458
451
454
451
445
440
462
464
448
445
446
464
476
483
467
445
441
445
456
466
486
481
443
439
464
452
465
481
484
472
441
430
445
455
460
457
482
490
463
444
446
457
455
441
467
487
477
463
462
461
466
461
472
497
502
497
494
486
487
480
465
456
464
444
428
429
437
453
462
464
443
432
436
440
446
447
447
428
421
426
444
452
467
466
450
438
