0
0
0
1
1
1
1
1
1
0
1
1
1
1
1
1
1
1
1
1
0
0
1
0
0
1
1
1
1
1
1
1
1
1
0
1
1
1
0
0
1
1
1
1
1
1
1
1
1
0
1
1
1
1
1
0
1
1
1
1
1
1
0
1
1
1
1
1
1
1
1
1
1
1
1
1
1
1
1
1
1
0
1
1
1
1
1
0
0
0
1
0
1
1
1
0
0
1
1
1
1
1
0
1
1
1
1
1
1
1
1
1
1
0
1
1
0
1
1
1
1
1
0
0
1
0
1
1
1
1
1
0
1
1
1
1
1
1
1
0
1
1
0
1
1
1
1
1
0
1
1
1
1
1
0
0
1
1
1
1
1
1
1
1
1
1
1
1
1
1
1
1
1
0
1
1
1
0
1
1
0
1
1
0
1
1
1
1
1
1
1
1
1
0
1
0
1
0
1
1
1
1
1
1
1
0
0
1
0
1
0
1
1
1
1
1
1
1
1
1
1
1
1
1
1
1
1
1
1
1
1
1
1
0
0
1
1
1
1
1
1
1
1
1
1
1
1
1
3
8
4
2
1
1
1
7
27
14
7
4
21
19
10
5
21
14
7
4
2
1
7
43
73
52
26
13
24
59
51
58
46
22
16
12
50
74
64
51
69
86
43
21
11
20
42
35
34
31
15
8
4
7
42
68
49
32
53
53
26
15
16
50
82
70
38
24
31
30
15
8
19
56
62
40
52
73
89
80
42
21
22
48
51
52
112
135
126
66
33
17
10
33
31
40
44
37
44
36
62
97
89
87
106
98
52
66
91
81
95
105
97
68
36
23
18
19
76
122
121
73
38
63
112
128
76
37
23
33
66
102
114
171
290
387
439
451
415
342
269
183
97
59
36
19
11
6
4
2
2
2
48
79
85
68
35
18
33
78
106
74
57
105
141
147
112
62
31
19
11
49
77
98
101
137
172
133
101
109
90
78
96
123
170
186
199
188
183
166
200
199
171
163
175
213
213
219
208
172
166
209
230
229
214
211
234
270
290
242
208
201
172
164
174
229
301
318
258
236
282
298
289
302
319
294
238
240
272
282
262
305
337
283
213
254
264
259
286
332
346
326
291
260
301
352
334
320
378
429
429
405
332
295
275
300
281
244
286
270
234
180
183
216
250
265
279
286
263
199
189
229
254
240
224
210
162
142
185
246
260
220
168
130
172
176
133
178
220
219
209
190
150
146
163
176
202
216
214
186
161
169
198
254
285
293
269
252
163
145
183
258
347
361
335
321
334
322
291
276
298
332
364
385
392
387
386
399
409
416
385
379
380
347
331
374
373
364
378
362
324
308
336
382
416
437
385
363
372
379
387
409
383
386
369
356
349
335
375
420
453
436
393
398
375
385
430
484
503
452
381
349
343
315
330
382
451
444
407
391
382
386
400
380
372
396
381
382
422
419
395
404
403
358
329
353
397
424
387
416
490
446
361
308
289
287
327
344
388
395
388
379
383
415
400
399
429
427
382
330
316
325
361
395
429
427
396
356
305
269
263
288
337
352
338
343
358
330
327
382
415
384
348
365
375
377
399
418
444
435
400
378
352
330
358
407
449
493
480
424
385
366
351
354
386
345
319
343
385
382
403
439
434
408
354
315
316
333
347
383
420
418
368
373
392
380
360
344
394
399
344
301
304
318
310
319
313
291
299
332
334
351
334
334
302
317
348
330
299
298
298
281
261
287
348
396
415
452
524
580
630
681
680
627
585
522
450
421
377
284
179
119
108
135
187
227
267
275
300
293
276
282
303
339
392
435
399
340
316
329
324
323
376
431
434
358
299
278
264
291
343
372
360
361
409
390
349
310
355
379
376
387
371
359
378
382
419
443
441
414
378
368
403
408
395
369
309
244
245
293
335
377
435
465
466
474
453
429
384
359
395
408
415
423
412
409
395
436
495
495
478
455
435
440
448
444
465
433
367
376
381
413
449
469
465
443
414
362
379
484
569
570
533
508
518
483
426
416
447
449
472
466
434
404
371
371
380
384
420
397
388
388
361
296
268
278
338
373
375
394
391
356
312
285
321
335
349
340
302
361
392
381
399
383
349
335
351
354
323
316
362
420
403
380
404
430
386
352
382
403
400
422
416
376
368
386
437
459
402
404
418
442
424
378
346
367
420
452
436
426
397
377
411
434
464
456
441
422
399
358
356
365
365
379
393
382
358
347
398
445
465
428
392
392
418
478
515
477
416
359
362
394
385
373
403
419
383
344
344
339
385
452
471
487
443
429
460
513
502
481
457
419
416
411
403
442
446
488
560
553
492
473
494
512
508
507
512
486
435
409
408
446
470
508
539
560
581
564
484
422
411
429
459
495
516
489
476
480
473
484
526
521
498
491
475
442
451
484
532
538
526
493
468
438
423
456
520
524
495
477
503
506
514
510
526
570
526
455
384
374
402
400
415
451
461
505
535
495
452
442
458
467
458
429
391
398
418
439
458
480
488
484
455
379
360
400
424
464
475
496
528
491
435
404
407
425
417
390
366
402
431
434
460
484
458
422
390
391
427
473
546
619
642
652
675
731
780
790
760
718
623
523
479
448
395
355
308
284
323
354
369
350
369
407
423
434
451
465
446
431
428
465
522
527
499
461
448
456
469
497
524
523
536
537
514
507
516
546
557
544
519
488
528
507
499
547
587
584
556
502
494
478
479
525
577
605
598
573
561
554
531
531
543
537
527
503
498
484
550
621
642
663
629
584
597
585
559
566
603
605
572
560
551
563
607
647
667
645
583
548
534
512
559
615
664
641
560
509
546
617
633
636
651
676
663
622
569
553
540
558
621
630
577
539
565
583
558
512
513
501
461
460
476
524
529
498
476
468
479
434
393
401
426
453
489
540
565
552
489
445
405
404
461
522
503
478
474
480
465
434
459
476
456
426
405
416
392
404
476
535
544
556
565
554
525
491
484
516
515
476
481
464
481
486
479
496
510
480
441
426
479
546
569
552
488
448
428
449
466
439
450
486
518
501
454
488
531
551
556
554
556
522
475
417
435
473
497
520
531
510
468
420
437
469
462
524
570
552
498
441
404
451
536
565
536
463
409
424
419
400
445
484
490
463
429
429
406
390
447
485
440
422
455
482
476
463
435
449
420
397
389
382
421
455
459
461
455
420
406
460
474
440
450
469
464
429
398
422
478
471
485
473
432
412
428
433
441
422
425
474
506
530
526
504
487
434
436
471
483
425
388
422
441
469
510
574
558
492
480
466
483
495
525
546
516
518
503
475
448
449
483
484
452
457
488
514
501
490
523
560
548
520
488
471
465
482
482
515
566
580
565
541
475
439
496
546
470
355
358
446
490
510
531
555
513
447
447
449
475
519
579
642
721
750
748
779
815
800
789
811
753
635
475
354
340
369
352
407
436
409
372
390
411
380
388
448
521
529
536
477
399
398
450
519
549
558
492
430
440
499
551
569
535
493
431
400
423
451
490
520
535
509
465
472
493
529
523
543
564
557
543
560
529
524
507
510
538
523
495
480
470
448
512
575
590
587
568
563
543
507
470
454
468
513
571
613
624
569
549
556
539
544
580
577
564
566
615
669
676
641
609
598
577
575
594
606
617
588
568
551
526
553
603
638
604
567
562
549
534
552
603
655
629
558
493
501
545
497
488
545
552
539
511
491
457
408
462
486
517
533
526
484
419
429
485
520
485
436
394
396
412
446
488
502
472
484
505
505
478
454
433
440
472
477
477
469
450
436
487
565
574
524
462
463
478
448
456
482
509
517
503
487
526
561
559
559
558
508
460
519
533
502
474
508
520
508
556
579
544
483
435
501
542
541
536
531
506
494
538
587
596
564
488
425
426
483
531
548
567
535
504
492
522
535
562
584
610
579
532
527
536
540
517
511
508
520
527
510
490
474
488
513
568
559
436
427
532
608
629
640
609
537
503
542
582
610
610
564
528
511
482
436
462
540
589
594
565
541
562
553
502
489
531
591
594
586
525
496
493
523
555
533
491
486
532
546
560
551
543
578
602
555
492
452
462
508
489
467
499
546
549
544
542
568
582
560
530
533
510
516
518
528
561
590
602
592
594
602
652
666
649
687
725
702
660
645
695
743
699
707
783
786
758
730
708
693
678
706
740
677
637
632
623
604
617
644
665
636
600
601
628
644
673
732
776
804
813
833
875
910
906
905
843
732
632
573
504
435
413
462
486
414
411
443
467
498
516
532
530
513
482
438
456
542
558
561
546
517
516
523
535
541
502
501
506
521
518
475
465
472
478
474
489
523
523
496
471
502
541
577
593
523
459
497
563
574
571
576
605
625
594
538
505
497
473
492
531
564
547
558
589
581
605
627
621
575
522
480
467
508
573
623
602
552
515
503
495
502
491
474
528
604
621
607
611
609
572
551
577
592
584
559
534
563
611
625
571
537
552
554
529
483
487
549
523
486
460
465
485
480
470
473
451
405
342
385
452
440
424
437
475
466
425
401
392
407
435
493
512
444
390
386
369
369
394
446
479
470
411
374
366
377
376
374
401
421
413
380
343
375
421
433
481
488
423
380
368
385
391
395
420
449
461
434
458
480
459
468
519
524
485
436
399
403
432
449
460
453
424
416
421
444
436
463
465
432
420
431
459
482
503
515
514
467
407
379
389
410
438
472
531
553
502
451
442
443
481
499
463
431
409
395
402
429
467
528
573
541
449
402
392
392
416
472
488
460
471
469
472
472
481
515
533
538
505
463
476
495
449
400
438
463
441
452
493
490
481
498
510
483
453
438
482
526
534
519
484
442
413
430
428
417
439
472
499
495
455
450
479
482
480
516
536
517
484
479
509
492
467
493
475
428
428
443
446
460
494
511
471
490
474
457
455
416
395
417
470
489
480
463
490
517
508
512
539
504
432
444
490
530
520
468
465
505
480
417
441
496
475
503
495
475
424
404
413
411
415
459
484
457
443
429
430
456
451
473
479
479
494
470
436
508
583
654
735
773
792
787
769
704
628
578
506
444
361
305
307
341
357
391
392
384
368
332
376
422
443
467
495
490
461
417
425
430
428
419
414
433
427
432
443
439
395
350
369
455
491
464
471
471
433
427
432
471
470
459
499
502
479
483
471
481
464
442
472
508
541
539
532
500
448
440
448
441
430
464
506
561
572
495
480
506
514
560
631
595
525
464
440
474
485
503
567
593
575
540
537
535
525
529
530
512
514
550
583
578
527
544
577
573
554
521
533
533
525
526
589
612
582
536
535
512
486
502
528
551
508
457
447
424
404
467
490
462
414
401
448
418
422
438
440
448
442
450
448
412
394
433
480
450
370
292
314
382
411
411
415
423
440
446
443
439
461
480
493
473
476
471
474
471
427
431
436
426
426
453
420
407
442
508
568
560
529
495
492
511
516
545
537
484
453
417
433
473
480
486
531
530
489
429
428
428
447
523
588
580
524
457
436
452
475
498
535
542
502
465
483
490
464
436
454
533
558
526
497
488
477
498
521
517
490
431
432
440
441
463
465
459
475
480
505
533
543
538
549
499
474
469
494
522
567
617
573
457
361
375
403
464
491
496
492
516
537
503
464
467
443
438
508
541
569
554
569
592
556
527
561
536
473
430
425
433
448
487
521
542
528
465
441
466
503
543
577
585
555
523
515
517
503
479
518
534
521
522
479
449
439
453
524
542
497
505
491
466
504
538
551
544
496
478
507
545
537
518
529
543
515
463
474
504
542
581
595
554
513
510
513
504
508
571
577
544
524
492
471
451
431
411
452
506
543
545
514
508
507
501
481
496
486
512
541
538
539
567
589
632
675
686
695
735
762
781
825
847
784
665
538
480
418
382
412
442
390
346
354
372
367
412
454
477
459
470
513
465
400
395
451
494
487
436
358
363
440
465
482
508
473
430
458
491
501
515
550
575
519
452
445
433
409
440
503
511
500
503
478
452
424
450
491
518
524
529
538
538
523
565
576
546
499
475
461
442
488
541
595
604
578
551
533
507
515
511
536
591
604
581
549
553
553
588
621
604
558
512
480
511
598
646
658
644
545
497
533
597
605
578
591
586
538
555
589
598
605
564
536
563
572
545
527
542
530
507
513
532
526
503
481
463
418
421
457
491
507
481
442
418
440
474
440
413
440
453
464
478
470
458
460
488
498
477
422
368
365
384
428
489
492
467
460
467
486
497
516
477
440
446
469
453
414
427
476
498
508
497
513
503
507
526
552
494
479
448
459
481
483
489
486
477
456
472
533
546
502
443
436
488
509
517
500
487
483
490
492
497
480
481
440
452
474
476
518
498
440
458
474
440
459
493
550
561
536
515
486
477
475
443
443
512
558
570
557
504
479
445
429
450
494
513
517
496
464
462
525
552
535
491
495
538
579
609
554
527
539
547
572
586
573
573
546
523
552
579
595
615
603
569
591
610
623
590
572
589
584
627
715
697
601
546
545
571
585
600
633
652
609
574
554
547
581
592
581
612
633
632
645
636
591
552
557
624
647
587
544
539
555
554
582
662
688
608
577
567
565
549
560
618
633
573
532
544
576
541
562
640
643
608
581
561
539
516
515
539
525
500
519
592
611
597
580
583
601
596
562
481
442
508
593
611
607
544
455
440
483
493
499
523
547
540
521
528
512
528
596
693
736
755
785
841
864
871
836
772
664
541
456
388
308
279
359
423
443
419
429
454
448
449
470
481
468
441
467
544
535
481
452
470
478
454
464
452
409
413
463
528
561
560
542
490
484
488
517
523
521
495
489
463
482
496
520
501
435
402
402
406
457
520
597
604
547
471
461
516
524
514
508
523
533
505
477
486
491
520
567
587
560
542
549
545
500
474
532
609
611
566
533
504
449
462
526
583
621
601
562
567
578
551
549
577
589
563
510
485
474
468
512
595
611
599
563
544
525
528
564
591
572
491
426
417
464
493
491
508
549
560
499
448
447
441
441
469
439
415
407
408
447
439
441
428
389
375
391
422
444
408
438
491
508
466
406
372
359
400
438
457
453
435
410
413
392
439
468
487
503
512
502
468
430
436
489
530
523
481
419
399
449
488
506
535
551
509
463
432
420
473
553
590
538
497
479
495
505
493
499
537
546
545
541
515
495
500
515
506
506
528
529
504
514
547
542
559
576
598
596
540
456
453
496
531
537
512
480
493
556
606
602
561
487
465
475
483
498
523
578
610
570
548
564
506
456
464
482
521
556
559
535
535
544
570
588
587
557
525
511
495
500
529
531
541
540
550
588
606
589
543
511
474
434
453
494
569
604
598
584
583
575
569
583
555
539
539
530
514
475
451
443
467
510
534
538
532
515
514
534
528
472
475
497
500
506
517
522
484
488
502
514
559
587
543
494
494
499
487
499
502
518
523
496
470
466
450
506
542
513
479
427
425
475
523
573
585
599
563
539
549
543
534
541
577
565
515
496
479
470
514
579
613
592
553
519
500
503
504
520
561
530
470
437
440
479
516
550
600
637
666
698
714
766
795
781
805
803
719
641
584
505
389
351
355
360
333
330
354
332
340
390
442
468
467
445
442
436
421
418
465
458
400
429
495
505
503
511
519
537
516
464
430
415
427
473
528
525
494
444
444
432
428
451
508
556
551
539
447
356
352
384
443
505
553
547
532
516
481
482
521
502
484
459
501
533
504
497
542
579
543
486
476
500
485
461
516
534
478
465
513
560
558
561
578
586
569
562
565
561
540
576
630
633
598
530
508
536
580
575
577
592
594
533
489
502
502
514
564
567
543
494
475
478
460
451
512
578
551
499
482
480
463
478
474
413
372
351
384
428
431
463
485
467
424
444
436
411
383
387
410
449
448
449
445
438
434
429
448
464
441
391
354
365
392
463
486
494
474
405
408
474
488
455
442
455
472
483
478
468
483
532
562
570
506
390
385
421
418
415
448
491
525
526
524
518
485
460
469
483
491
472
476
501
493
487
493
532
534
477
453
436
438
460
510
577
543
460
439
453
447
464
493
482
470
466
478
466
483
499
525
564
544
486
475
496
506
513
521
539
538
494
501
513
515
480
461
478
500
504
484
448
434
480
542
551
529
485
473
495
531
563
594
570
529
491
478
463
441
457
513
545
531
505
500
512
503
471
491
533
545
521
496
543
536
515
510
542
556
522
531
521
487
500
531
535
504
469
473
514
551
517
522
538
543
561
530
497
514
522
501
497
535
504
478
475
471
489
539
582
555
521
519
517
512
516
534
578
593
585
532
470
483
475
503
525
516
499
494
508
509
508
507
542
586
588
571
549
507
479
480
533
559
526
503
512
490
442
427
442
460
459
470
505
525
518
528
522
461
437
453
498
556
597
662
723
798
867
877
831
794
785
726
648
524
408
291
234
267
333
402
453
495
471
427
441
469
484
464
457
467
448
428
406
445
477
508
513
485
462
436
454
476
493
518
543
517
481
484
511
495
429
416
472
526
524
532
552
537
522
533
549
516
486
468
497
531
523
526
522
543
555
557
531
500
531
591
637
644
603
592
551
533
531
560
555
577
605
627
632
616
617
598
586
596
572
564
557
550
580
663
735
716
629
584
578
570
579
602
638
672
605
537
570
620
682
714
689
660
633
616
597
582
574
564
563
568
576
559
586
614
578
552
571
545
490
454
438
461
480
524
570
512
454
463
499
484
470
481
479
458
436
453
459
434
412
441
467
472
477
498
479
456
467
502
495
471
461
456
434
455
471
479
513
541
490
453
405
370
352
398
488
521
574
588
534
471
413
420
443
483
501
487
456
458
490
497
504
507
474
404
367
359
445
508
502
472
439
404
412
425
461
486
481
493
478
438
421
435
500
549
564
521
433
378
403
456
476
491
538
552
476
434
446
437
435
446
479
476
445
418
428
470
489
485
473
447
455
475
463
448
442
445
488
513
500
519
520
480
427
393
446
492
475
398
382
437
457
490
527
516
485
475
477
477
463
485
514
515
501
475
476
491
505
538
511
480
481
451
439
474
515
535
552
504
466
483
534
533
489
461
487
525
533
478
444
464
490
533
583
567
502
428
410
470
521
527
497
515
543
551
538
519
487
468
503
524
522
500
484
473
491
514
554
541
501
541
568
564
527
474
522
551
531
534
529
481
469
505
549
561
530
475
491
491
464
484
561
547
504
471
458
442
429
433
447
473
463
436
434
476
478
472
492
467
476
529
565
636
709
773
867
920
916
843
736
636
515
410
373
327
294
276
307
345
368
403
458
479
436
352
369
411
412
417
431
462
457
421
457
458
441
454
489
518
502
467
466
480
481
493
543
560
525
491
472
460
421
418
441
486
491
463
443
420
418
447
495
533
550
554
574
558
525
515
512
490
482
471
475
501
540
564
575
570
574
583
566
516
486
489
488
499
556
555
539
530
523
531
551
559
575
571
531
536
545
548
551
609
641
595
576
583
583
587
628
645
636
587
560
543
547
578
625
642
635
623
611
589
549
499
507
476
441
498
545
562
484
425
462
508
531
500
441
389
343
363
424
478
496
491
481
465
460
448
444
429
380
380
405
403
437
461
461
442
435
433
495
500
459
434
437
438
460
451
425
410
436
472
490
504
524
503
517
508
484
452
482
521
554
551
525
513
495
472
499
539
566
558
533
491
447
427
427
437
447
458
462
470
500
520
586
617
574
501
456
494
572
592
518
499
492
487
472
453
434
487
544
522
494
465
447
464
467
500
534
531
559
546
498
457
449
458
486
499
511
453
440
494
545
560
554
543
538
502
444
446
473
457
470
486
496
505
530
518
494
489
493
528
535
512
511
536
495
455
458
482
496
469
463
481
461
408
435
447
489
484
456
491
546
568
560
560
535
467
405
397
424
420
443
481
529
538
543
518
516
509
532
517
495
470
456
462
472
488
513
518
555
569
480
454
460
502
556
550
516
488
472
444
431
422
487
533
505
479
506
508
481
491
528
567
545
536
522
529
541
516
522
568
556
540
539
520
492
499
532
542
510
476
452
459
433
422
441
477
531
526
496
517
537
527
524
523
492
447
425
423
480
545
616
670
645
615
630
673
737
791
846
872
855
775
647
558
503
485
460
428
393
350
337
340
396
437
455
461
461
464
457
485
480
460
481
496
477
440
401
404
443
446
476
519
544
542
467
425
427
471
517
508
497
527
532
497
463
505
537
531
477
425
396
414
466
491
535
533
517
505
502
502
525
531
556
563
569
556
519
490
495
515
541
547
578
601
560
530
543
562
567
535
540
541
548
567
563
578
627
632
599
585
570
572
582
582
607
645
635
574
584
588
597
633
632
604
579
542
540
555
578
607
637
631
599
548
530
558
549
517
528
551
527
517
516
552
560
516
518
563
525
440
374
387
424
430
443
491
465
419
402
408
411
426
457
484
472
432
427
444
434
423
408
417
417
458
481
483
484
478
465
464
464
441
420
422
428
452
476
491
502
502
446
444
495
506
501
502
451
418
472
481
499
524
515
523
485
446
444
475
474
480
525
560
558
525
482
450
430
427
437
476
511
509
497
482
493
514
531
569
575
532
498
471
457
476
479
474
472
484
496
520
467
430
461
525
545
523
462
427
436
442
465
510
557
539
534
507
489
496
513
529
540
510
512
532
503
463
488
550
561
520
504
521
521
508
515
541
524
491
460
439
448
496
538
567
578
548
476
427
432
441
453
515
575
594
559
549
542
532
547
574
570
520
511
513
516
466
458
555
617
557
462
409
415
467
538
576
583
567
538
514
511
523
553
561
544
477
408
412
441
469
510
560
573
555
535
516
512
532
512
467
476
503
476
475
534
589
619
613
572
516
466
445
467
513
551
576
590
558
525
515
508
490
481
528
580
551
506
464
505
558
573
579
585
553
498
476
465
445
498
567
575
524
455
440
461
493
506
499
511
523
546
573
649
746
830
911
946
924
827
747
682
565
506
450
353
291
315
338
368
374
358
391
435
444
429
440
473
475
472
494
508
460
402
416
397
382
442
521
542
522
522
503
529
546
537
516
523
514
496
479
480
467
494
537
575
586
575
534
529
524
534
570
562
482
444
471
487
506
564
622
622
609
580
528
505
531
564
586
566
518
513
552
601
581
560
607
609
608
603
583
584
621
635
642
615
566
544
575
618
615
658
734
775
714
609
594
593
589
600
623
622
632
635
601
585
657
673
655
640
573
525
518
533
531
499
529
591
575
534
517
536
519
549
587
579
551
502
467
466
422
414
452
469
449
407
396
403
444
470
495
502
507
450
409
391
404
446
480
507
513
472
436
447
481
494
521
520
506
489
472
445
449
456
494
523
520
465
462
476
508
502
483
524
534
556
577
538
499
509
555
558
527
483
485
483
478
508
570
512
447
475
533
596
579
548
563
575
533
473
478
484
470
463
493
531
544
535
528
503
474
477
518
551
558
542
512
495
500
511
553
600
602
565
510
500
510
548
522
471
497
514
515
521
532
534
569
578
525
493
526
526
543
565
555
551
541
498
492
495
547
583
590
556
535
521
499
487
475
499
553
542
524
564
537
542
554
573
597
588
559
515
449
412
436
480
544
595
602
573
497
459
494
524
569
612
607
573
518
514
500
464
507
573
557
499
468
472
493
526
556
555
538
484
428
410
445
507
568
590
561
493
492
547
567
514
490
540
532
510
535
549
510
515
535
547
528
456
441
495
531
494
513
531
523
510
506
506
502
481
492
516
509
494
516
510
478
454
470
487
475
518
576
591
554
510
489
508
497
464
472
467
466
483
523
541
527
513
551
592
625
695
775
835
859
824
777
699
639
579
536
485
425
338
291
287
308
337
389
416
433
449
443
419
449
445
462
498
502
500
487
479
453
411
420
467
510
511
519
526
485
497
499
477
464
474
480
480
462
451
472
508
537
520
480
482
483
502
526
541
515
503
479
441
452
463
467
521
544
548
532
516
510
540
541
533
486
475
482
503
526
539
560
556
530
522
538
575
569
561
568
582
588
553
510
497
523
526
539
558
555
554
538
572
607
587
581
593
522
466
496
534
553
560
560
566
603
598
541
512
505
515
502
530
549
553
503
464
423
416
453
510
501
432
380
405
442
446
457
443
432
429
431
395
325
309
350
411
468
484
433
424
438
432
422
456
454
437
432
448
456
450
450
491
524
490
433
395
409
414
448
461
472
476
481
503
507
534
543
515
472
439
464
480
479
472
495
512
519
517
522
501
481
466
486
529
537
499
464
454
472
490
483
500
512
509
481
484
525
543
542
528
515
496
471
454
468
487
488
512
508
483
493
514
503
461
466
528
573
525
484
489
507
499
513
498
461
463
469
473
483
500
516
558
549
495
446
462
518
540
527
529
530
498
487
512
504
489
536
545
486
447
440
446
471
484
495
535
574
569
547
514
460
446
500
569
576
546
508
494
505
501
488
523
547
501
469
457
467
489
525
541
591
589
514
472
485
496
515
542
561
601
608
559
512
471
445
469
503
543
544
536
516
521
542
550
536
513
470
478
524
539
540
557
521
458
449
502
557
599
615
622
629
586
551
580
575
552
514
505
517
523
540
519
501
446
460
512
543
491
457
481
507
526
539
577
594
584
571
563
547
527
514
528
531
486
449
475
518
539
624
802
905
865
790
770
734
677
603
539
484
440
403
411
424
429
418
407
413
395
405
467
487
486
498
506
481
441
404
392
398
446
503
497
447
444
485
511
491
498
520
541
527
494
469
474
467
455
474
514
537
490
451
429
419
403
415
474
538
537
491
445
412
439
488
504
521
519
512
506
509
466
459
515
526
491
471
492
505
530
535
533
514
528
527
498
499
515
565
606
595
566
558
549
552
549
540
523
537
546
560
563
554
622
681
694
657
622
593
577
565
520
479
511
559
614
605
601
598
547
535
522
453
450
455
452
446
447
519
611
636
603
551
536
529
528
514
517
559
579
583
612
665
625
590
603
620
622
610
637
674
683
679
689
715
704
672
676
681
648
640
655
659
630
566
566
661
707
650
618
642
632
600
594
566
549
588
673
711
689
658
625
562
534
546
571
550
531
484
498
562
569
519
470
460
499
546
546
534
560
567
534
537
539
537
519
487
477
494
514
523
547
531
483
487
560
605
589
537
486
456
413
417
423
459
515
543
519
506
462
393
400
484
547
560
532
474
397
448
499
501
534
521
464
430
424
420
441
495
545
538
492
452
438
427
397
417
476
504
524
506
498
508
483
455
480
495
476
446
442
452
448
483
539
570
512
409
373
402
437
456
479
504
488
472
472
460
429
401
442
498
517
494
441
398
388
408
459
531
540
451
373
388
439
464
490
492
488
470
447
446
471
475
501
504
472
442
421
416
409
414
448
448
447
464
459
425
416
482
539
540
545
562
533
494
503
496
506
518
478
436
440
470
482
484
451
446
428
370
354
383
450
489
532
529
504
482
444
482
476
432
415
475
503
467
481
537
618
701
761
826
810
750
657
611
576
522
495
463
395
371
343
339
365
384
399
422
405
374
364
404
450
451
434
425
460
403
361
364
365
370
408
471
494
455
424
429
451
459
485
521
539
495
414
393
423
425
421
425
459
488
479
494
501
477
505
576
539
448
399
404
373
391
475
530
549
508
466
463
451
451
514
561
545
500
499
500
444
456
502
535
576
567
537
495
481
477
540
625
641
571
521
504
495
461
495
571
597
576
552
551
531
501
509
539
552
558
541
545
587
582
570
585
558
512
504
484
458
443
447
473
462
473
458
410
365
420
502
548
512
430
365
352
363
376
413
458
452
426
435
422
396
360
351
390
412
399
403
388
373
359
400
441
466
476
408
386
409
402
410
445
435
399
369
357
369
401
437
422
415
423
424
435
472
495
507
486
467
482
459
409
398
429
450
503
491
483
478
471
441
439
489
529
497
415
393
425
453
463
486
562
584
507
452
398
396
419
483
533
554
544
500
440
442
471
494
529
553
534
514
511
498
461
450
481
516
511
463
401
384
412
499
580
559
512
501
483
463
473
498
547
537
509
465
463
498
504
496
523
530
518
515
499
465
455
485
504
504
506
491
462
455
481
507
544
561
528
455
429
444
472
510
556
533
487
457
446
482
529
547
565
551
503
502
519
510
466
439
462
496
508
479
472
457
463
479
548
592
558
506
514
509
478
457
493
516
511
499
482
494
513
533
545
530
488
471
446
445
494
556
579
592
590
530
470
477
516
550
564
577
561
523
482
491
480
464
493
553
559
496
443
477
509
532
555
576
572
562
547
540
549
591
587
548
512
526
502
478
494
533
536
540
530
496
458
442
454
489
537
581
589
541
502
577
706
821
897
914
858
764
719
683
621
543
538
510
480
462
420
408
421
408
451
481
444
399
413
409
403
430
484
533
538
487
446
441
444
481
538
581
581
527
451
404
412
458
527
595
576
479
392
445
501
472
512
541
499
461
457
472
473
505
553
582
566
539
547
549
536
550
589
581
533
486
472
453
461
487
526
536
550
500
456
483
506
531
572
576
585
575
572
560
572
594
605
584
564
535
544
547
574
602
614
624
627
602
543
515
549
570
568
610
617
601
607
569
532
536
559
559
525
510
527
556
549
540
561
574
561
488
451
478
499
509
509
513
474
411
374
392
410
439
473
453
431
446
454
447
435
436
437
447
492
488
452
420
412
366
376
404
409
422
424
411
425
450
481
517
534
514
462
433
450
475
491
479
419
404
446
480
450
448
490
529
556
533
468
434
443
475
490
511
492
501
520
515
487
504
543
525
459
421
425
454
483
489
502
493
487
479
509
543
495
461
501
511
491
480
476
465
462
486
515
520
516
476
487
517
487
509
553
558
491
465
476
496
514
523
568
523
485
468
445
464
493
466
449
478
498
469
477
493
488
476
511
556
569
551
525
495
459
463
501
512
508
527
542
524
489
488
530
528
472
450
448
452
463
501
570
610
619
568
488
474
477
493
485
484
504
497
498
476
449
489
533
527
521
482
452
465
471
473
506
550
572
564
524
495
490
511
553
589
601
596
560
476
430
407
419
469
498
473
477
474
494
483
450
505
584
598
590
549
500
490
516
551
526
493
484
502
525
508
492
477
500
536
511
496
515
550
581
579
560
521
485
474
477
485
526
565
570
552
542
564
569
534
544
541
514
504
474
461
476
505
564
631
594
524
468
457
467
493
524
549
558
547
471
427
474
512
542
559
554
553
552
570
611
707
818
904
938
858
754
684
620
538
496
464
436
404
393
347
342
395
410
459
509
505
452
469
485
480
511
513
506
471
446
440
422
420
478
462
447
440
418
463
528
527
494
521
546
508
418
409
467
490
481
502
541
555
531
475
464
474
505
514
505
513
533
530
506
447
469
518
529
480
478
493
515
558
546
554
588
589
590
573
549
556
542
549
538
520
497
512
529
536
524
516
517
506
525
513
541
559
591
600
600
589
578
546
561
619
634
628
608
589
564
577
572
545
600
656
625
559
518
486
475
495
495
514
514
474
438
441
452
457
494
517
488
468
470
476
453
421
408
458
499
471
454
448
443
396
372
384
410
404
391
395
375
391
433
436
450
428
430
423
422
449
465
484
487
492
451
409
398
397
430
503
546
515
468
454
468
486
529
556
551
518
515
496
433
396
423
458
488
486
490
491
496
519
539
535
490
457
470
503
479
480
499
506
487
496
512
542
550
536
546
563
574
518
458
448
449
490
526
515
498
528
538
520
481
477
528
575
612
596
540
488
438
425
455
510
521
567
580
527
455
419
461
500
499
520
549
537
509
492
490
549
594
567
528
501
478
481
510
548
532
477
459
491
508
503
527
567
561
536
505
483
505
530
539
566
566
530
503
503
510
500
517
522
538
534
495
466
488
508
533
545
557
556
506
458
442
454
486
528
568
588
543
508
497
489
478
502
545
547
509
464
473
489
532
621
662
597
511
457
472
469
456
473
492
509
480
432
435
498
528
586
611
620
616
584
559
534
501
514
539
539
499
473
471
518
545
552
572
589
528
478
492
522
495
481
500
516
529
537
545
553
565
565
558
548
541
529
532
547
537
567
599
578
556
538
521
518
534
537
534
547
553
525
443
446
524
589
586
548
532
538
522
508
511
526
513
470
454
478
528
572
564
544
566
581
575
573
606
678
774
824
861
878
856
791
727
649
552
486
443
412
399
359
336
377
452
507
559
558
518
490
490
460
439
476
489
462
472
507
542
522
515
541
552
498
432
431
451
458
438
451
481
484
477
467
467
470
453
494
527
521
512
494
512
524
529
501
522
524
516
517
525
522
501
463
454
456
479
498
525
566
558
556
557
537
521
528
517
516
528
552
543
540
527
517
528
555
557
577
610
584
567
555
536
545
537
526
574
611
611
557
539
565
584
623
668
650
617
577
574
594
587
593
607
600
576
549
545
511
480
518
554
541
515
493
497
483
468
468
482
458
446
445
432
454
481
480
492
489
461
419
406
419
404
419
477
515
519
455
394
356
322
325
393
455
435
472
523
502
464
462
468
475
445
438
438
429
443
477
499
516
474
432
447
456
464
493
556
558
526
466
465
527
546
543
559
517
455
415
432
455
451
434
431
502
537
519
526
508
496
495
531
523
504
507
524
537
545
542
556
549
508
529
550
559
519
468
444
486
490
483
514
495
464
458
485
519
510
484
497
500
509
533
565
539
512
524
548
533
501
513
543
519
484
481
506
528
529
524
548
572
523
485
501
489
468
521
573
552
525
532
514
472
447
494
551
565
537
493
486
483
484
504
555
556
504
478
456
468
496
538
580
546
505
503
503
505
537
538
572
578
523
497
493
462
465
509
569
575
544
499
462
453
455
468
527
591
608
553
514
487
494
516
552
566
528
518
515
496
498
517
518
506
520
521
523
510
505
510
532
536
508
516
518
486
457
448
483
494
507
529
536
545
565
537
543
571
538
475
471
514
555
560
571
586
551
520
491
474
499
492
524
529
499
481
477
488
506
536
566
587
574
547
503
497
490
503
525
529
559
602
578
545
549
574
609
608
580
544
520
539
520
499
534
562
524
467
454
423
429
443
458
532
539
534
544
520
542
567
563
558
562
598
626
673
746
804
841
853
826
740
690
633
564
531
500
479
458
415
357
323
319
376
442
477
488
478
484
456
432
465
489
557
567
512
463
450
449
427
452
500
499
501
496
498
491
479
484
504
508
433
407
492
560
535
535
562
522
463
460
488
507
505
465
488
530
505
486
491
519
544
557
547
542
534
495
485
497
517
536
567
560
531
541
544
542
564
588
581
570
527
494
525
533
516
546
599
623
613
611
642
640
625
611
623
583
538
519
537
535
581
637
665
658
635
609
559
528
548
584
593
570
570
558
519
533
532
545
531
516
509
481
463
490
513
527
518
491
435
413
439
412
391
448
494
505
485
462
465
433
402
414
442
476
486
432
398
404
364
347
403
403
372
403
450
480
473
460
486
457
473
520
519
487
415
389
445
507
504
491
507
489
465
466
467
457
424
443
544
559
556
557
557
523
475
440
457
481
462
460
462
488
472
413
426
479
511
516
496
495
513
543
546
518
537
569
560
534
505
469
446
498
544
552
530
518
512
495
508
505
487
445
450
450
457
490
500
489
463
476
498
534
539
510
491
495
525
563
577
569
527
497
458
460
472
524
535
499
482
509
532
527
527
535
537
531
496
483
470
429
448
500
510
522
523
501
527
533
505
491
487
495
489
505
535
513
539
566
576
568
522
484
487
532
546
538
552
560
514
470
436
433
458
495
551
591
526
484
494
524
543
557
553
531
485
467
501
530
544
560
550
533
513
486
484
486
488
487
503
516
483
493
514
517
507
494
525
531
519
502
467
492
519
527
540
560
570
523
475
468
494
530
557
599
605
561
479
445
467
512
560
576
550
498
498
524
489
489
505
529
534
539
516
502
502
543
580
563
485
476
472
509
546
565
566
521
452
440
480
464
484
542
556
529
497
505
539
537
521
510
540
512
519
521
520
521
489
472
520
552
527
475
467
492
526
612
688
751
795
786
775
815
810
755
692
619
507
420
373
358
344
362
384
412
426
446
459
469
469
447
427
448
448
455
466
438
424
427
474
503
505
453
438
475
469
475
535
531
468
447
483
493
427
398
479
533
525
506
494
500
500
529
567
532
501
530
558
550
490
439
472
499
500
478
495
565
570
548
563
529
527
526
540
544
512
518
561
555
499
476
482
499
538
605
659
633
593
546
527
540
541
556
593
626
615
563
565
572
570
577
612
633
653
662
623
585
577
584
604
596
586
578
595
587
574
531
526
518
460
436
420
413
480
523
534
586
584
514
468
454
449
471
515
525
495
455
421
414
405
416
429
446
445
406
383
354
385
408
434
452
434
432
404
387
396
452
486
486
472
478
470
459
459
481
482
476
476
473
486
461
416
450
485
480
480
496
497
505
520
519
504
513
514
470
456
480
468
443
481
524
521
484
488
503
485
474
514
526
491
491
519
520
504
481
498
517
517
494
480
467
456
439
491
525
521
504
479
460
472
507
537
542
512
445
462
467
486
518
506
501
470
452
469
493
488
508
550
584
598
566
510
467
488
513
513
567
589
526
482
488
463
487
526
509
489
477
477
469
460
440
485
508
509
483
483
497
543
529
535
539
508
492
499
506
482
483
531
519
508
515
525
535
544
545
515
499
489
442
448
478
503
535
546
554
534
505
513
530
536
546
553
564
538
487
431
448
501
543
545
551
549
537
496
473
462
471
506
523
526
522
480
508
542
566
558
534
523
541
518
510
520
542
546
541
498
474
466
452
472
505
521
549
530
483
479
498
514
525
584
594
517
478
460
472
530
556
533
545
525
493
488
492
498
523
553
529
516
539
545
494
494
522
543
578
589
564
509
505
487
486
517
566
572
526
484
491
502
503
517
538
526
463
421
415
473
513
563
580
578
571
537
510
489
512
557
605
650
710
794
853
844
827
790
737
655
559
501
431
394
378
324
331
376
424
411
394
429
474
485
512
526
495
451
403
418
473
551
595
616
573
512
475
487
512
540
570
586
564
540
519
533
570
585
610
600
545
504
524
529
497
517
576
576
540
536
532
535
584
574
561
547
503
530
574
578
584
590
576
527
502
497
521
562
557
550
560
548
540
502
496
515
566
615
638
619
581
543
560
584
598
579
535
563
590
583
591
589
580
573
591
629
618
576
596
595
566
567
567
548
548
565
588
585
550
561
590
585
544
497
507
521
500
476
487
535
518
487
454
443
459
480
483
486
475
454
400
396
464
523
538
485
414
386
369
362
365
389
404
417
395
402
435
420
423
444
474
508
494
479
467
418
423
463
535
575
516
484
476
468
469
470
482
448
438
411
414
454
467
481
515
524
540
520
533
506
487
516
534
487
451
437
428
448
465
481
536
564
530
473
465
475
453
462
505
542
548
514
494
523
528
533
513
477
478
500
459
446
480
549
577
538
479
455
446
433
399
418
520
621
615
557
489
434
441
452
475
541
538
500
514
518
521
528
534
501
500
531
507
522
534
513
506
506
505
496
502
519
529
548
563
551
496
461
476
497
500
495
524
583
549
500
474
457
453
488
539
556
517
446
404
435
479
501
520
534
533
534
551
576
545
475
469
530
530
467
436
457
494
518
528
520
514
505
497
459
455
467
490
532
531
518
527
531
508
521
550
556
503
493
508
507
493
509
579
605
583
540
482
450
427
440
509
513
500
515
543
552
532
510
510
498
475
484
493
539
573
607
651
656
632
586
539
555
567
557
555
576
580
537
549
600
622
619
604
558
508
478
449
473
514
597
659
681
637
563
511
526
542
553
554
578
600
651
704
760
805
877
846
748
717
701
616
511
427
411
433
444
410
424
453
457
438
453
468
487
453
431
429
429
440
466
492
487
487
489
491
488
502
504
467
411
386
425
444
463
503
544
584
573
534
511
495
472
478
470
438
418
416
441
471
498
522
548
540
513
498
471
481
494
482
465
480
520
534
506
509
535
533
535
567
554
519
495
467
514
567
542
517
563
609
596
536
515
525
523
505
522
536
539
544
557
579
595
619
621
617
548
511
564
605
601
618
636
632
572
516
504
496
478
482
526
548
571
533
501
518
534
540
557
544
484
422
418
412
430
453
501
570
528
461
404
345
338
382
380
357
349
372
389
405
398
354
371
434
469
438
386
393
417
395
379
384
417
459
484
531
521
477
423
378
329
346
410
442
462
476
469
454
459
480
497
526
508
444
414
464
505
472
456
463
462
484
502
474
436
472
475
441
446
513
562
545
513
461
422
384
389
465
516
550
540
512
488
455
435
504
587
571
515
463
442
425
420
457
513
526
485
469
494
520
512
473
465
473
468
466
452
423
446
475
513
537
521
503
498
515
557
539
518
480
492
488
478
472
462
490
526
541
489
457
455
455
477
492
506
511
456
476
487
470
470
495
553
569
533
496
532
520
483
490
523
540
505
494
493
485
497
514
526
527
561
546
496
412
371
403
472
524
516
487
482
503
503
511
548
567
526
478
480
507
553
565
539
516
500
504
505
484
465
476
480
477
525
526
468
481
538
589
614
600
547
451
432
473
509
525
563
561
526
537
530
503
484
455
472
509
527
539
536
508
530
585
597
553
477
441
441
483
509
497
541
602
567
553
582
591
600
665
784
858
858
803
710
635
574
518
496
475
442
410
384
315
299
377
465
464
437
431
446
440
437
486
529
537
491
429
369
390
396
417
446
478
438
389
408
461
505
527
547
533
483
491
489
462
455
481
485
442
416
416
447
518
584
581
536
479
428
417
438
453
472
478
462
474
487
485
461
451
489
533
564
574
548
531
552
574
555
509
490
525
543
521
509
563
590
544
538
566
559
532
524
550
582
601
622
628
587
583
618
623
614
641
654
618
569
518
490
513
548
569
652
681
625
553
509
514
501
492
521
546
507
464
449
474
522
540
544
525
508
456
403
433
448
430
427
434
443
452
444
412
407
381
375
422
457
461
449
433
424
397
400
468
499
481
451
442
453
470
495
498
502
444
394
395
427
466
498
504
456
435
464
517
541
533
536
543
528
466
423
429
467
477
520
559
582
522
438
426
471
521
543
514
494
481
478
483
521
542
539
551
566
506
456
486
538
558
546
528
518
486
475
473
464
483
538
557
539
490
493
502
498
462
491
520
502
491
511
541
576
583
590
535
491
471
472
472
479
494
535
547
532
511
484
505
511
490
504
521
493
465
466
494
509
523
574
589
549
501
473
462
499
522
568
621
621
595
521
470
464
454
471
506
503
475
422
388
442
510
554
575
578
569
550
520
523
538
538
519
501
487
478
493
513
507
515
515
526
520
524
500
509
534
541
551
528
524
532
494
474
492
516
505
531
510
497
514
525
516
540
557
535
508
504
521
541
583
621
636
607
576
547
507
517
546
569
575
550
490
446
456
459
484
563
608
589
560
547
524
500
483
470
486
516
522
542
566
626
675
704
738
759
801
850
848
817
760
651
551
510
533
498
448
420
428
439
464
493
481
458
475
499
470
455
482
506
527
526
501
462
437
450
482
468
408
397
389
427
472
505
551
589
598
552
502
487
493
509
519
501
469
476
531
552
523
529
518
524
536
513
506
501
495
519
545
530
508
487
499
522
534
582
586
534
479
464
471
496
539
565
556
564
549
527
544
572
574
587
600
590
592
617
603
564
508
519
593
612
616
596
570
570
597
640
670
665
577
495
509
570
586
570
559
548
542
542
560
634
622
598
583
547
498
474
481
528
540
504
476
484
500
490
483
481
466
451
460
443
386
354
377
430
470
460
466
513
496
447
401
378
386
414
437
424
430
450
443
395
422
491
551
541
490
428
400
379
393
405
440
481
505
512
503
492
486
498
504
453
434
440
460
465
471
491
516
528
510
482
452
452
477
523
555
567
553
503
430
421
463
548
591
531
508
484
453
424
437
491
509
532
524
490
473
459
465
478
504
550
570
569
554
526
499
524
504
493
485
457
431
456
485
529
555
547
543
547
530
469
447
441
443
445
463
498
519
494
475
539
566
573
582
538
489
488
494
510
519
535
558
500
460
443
453
461
504
539
494
452
462
488
523
544
572
592
553
488
453
422
435
535
615
600
500
474
461
472
500
514
480
494
483
481
462
466
522
541
516
479
471
468
480
510
499
521
567
559
509
469
460
465
477
505
533
534
499
493
508
518
516
544
562
548
516
511
491
466
460
491
534
550
519
497
468
428
412
449
471
487
474
492
503
542
548
545
567
575
553
530
506
485
469
481
506
497
488
496
532
541
545
589
540
531
541
535
534
536
540
582
586
551
519
481
489
486
476
514
500
500
502
485
493
478
454
496
538
573
594
610
668
706
772
824
883
890
831
754
729
657
547
503
475
415
369
374
386
411
439
422
442
502
503
475
457
454
445
452
460
468
461
438
432
453
493
496
506
502
530
539
526
503
483
486
484
462
441
445
454
447
476
510
528
548
534
484
415
412
462
481
536
570
548
522
510
521
537
530
552
547
547
524
506
517
551
567
568
565
554
517
470
449
461
491
533
575
572
574
579
576
549
515
511
562
607
605
588
546
517
559
618
658
652
619
563
542
546
556
603
649
635
575
530
523
497
495
572
611
593
573
555
549
505
465
452
495
527
499
445
447
471
454
461
483
491
501
473
436
403
368
363
388
408
388
350
394
436
460
462
472
456
427
414
442
444
425
416
447
435
417
420
416
418
406
396
414
469
475
517
481
400
423
457
469
443
424
452
478
465
449
481
525
530
499
477
489
496
500
520
525
501
493
491
480
488
518
529
522
474
422
442
476
517
526
512
508
519
475
426
443
501
525
511
498
487
469
470
493
533
527
508
544
537
497
454
430
399
385
450
538
529
520
520
495
484
486
514
533
527
529
504
482
481
487
502
519
484
458
440
425
462
490
480
467
488
478
508
535
523
494
516
545
526
478
472
480
488
500
507
520
524
513
509
508
518
488
469
464
467
425
366
384
467
510
553
546
518
480
454
471
516
540
541
507
493
504
505
486
486
506
539
555
542
510
455
466
492
490
496
490
479
463
452
453
469
551
579
562
534
518
504
497
494
470
467
513
555
548
531
478
464
474
479
494
530
507
486
505
479
426
456
533
573
566
527
489
500
511
504
537
560
518
454
404
364
411
504
591
613
583
544
529
516
523
532
558
532
498
520
527
459
436
491
520
532
551
556
542
516
505
519
548
551
485
421
458
497
528
533
539
544
548
541
492
468
467
483
535
567
548
525
515
501
526
579
602
629
684
757
832
878
847
782
749
706
623
516
432
387
382
398
433
473
428
404
440
472
470
479
471
435
410
413
429
461
441
431
441
481
503
505
540
577
558
524
496
486
465
439
431
446
463
458
485
500
476
496
538
571
572
577
577
534
470
456
476
489
512
534
517
489
504
513
511
479
479
524
574
561
550
541
557
555
529
540
575
598
592
555
517
508
489
482
554
603
613
605
563
545
542
556
590
581
602
581
560
585
603
627
635
645
624
542
502
467
507
591
644
635
625
592
560
579
559
556
571
569
544
494
461
481
476
469
505
542
533
520
502
496
506
521
492
486
426
382
347
332
369
416
454
430
384
386
413
442
442
406
427
447
416
424
440
467
464
444
408
435
445
446
432
429
428
450
490
520
538
524
469
436
424
446
470
471
456
439
420
451
474
538
578
539
529
493
448
448
482
508
551
553
501
487
506
529
511
503
488
491
509
514
527
523
488
474
477
471
486
519
548
554
540
476
504
563
540
496
498
454
409
442
496
521
528
497
486
499
520
543
559
536
498
471
477
460
468
495
512
521
520
494
478
461
481
517
553
558
532
504
469
448
461
494
546
555
553
527
504
464
429
470
539
532
508
516
504
496
510
502
500
486
528
550
521
487
476
481
549
576
573
534
529
534
521
544
558
533
481
427
430
448
452
485
498
488
466
466
481
537
548
548
537
518
497
468
488
519
529
521
546
584
561
533
524
480
435
453
494
515
487
454
440
458
471
503
564
578
545
515
527
496
460
484
546
593
576
517
458
473
492
499
487
487
503
469
452
482
523
584
595
553
537
524
520
514
498
489
525
592
603
579
533
522
467
425
458
513
520
511
519
557
572
560
559
569
564
518
465
474
513
544
545
533
534
522
500
523
525
510
519
530
513
472
461
479
491
517
540
545
510
494
491
493
534
594
658
731
756
797
825
817
798
749
747
699
594
527
452
360
298
308
389
441
444
420
424
418
427
500
542
545
518
451
400
423
437
426
447
484
499
487
489
483
493
485
485
514
529
517
476
455
448
468
519
547
513
495
486
475
476
497
514
528
534
508
478
483
517
505
501
549
555
559
556
485
496
512
504
530
546
539
547
525
506
508
524
538
558
568
570
559
554
583
583
599
581
543
558
613
585
577
603
630
650
656
641
598
590
585
571
579
613
600
577
571
563
541
557
595
600
608
564
524
525
518
564
587
546
511
521
552
530
504
501
503
494
484
462
451
469
477
480
490
471
440
400
399
414
418
412
448
473
448
422
435
426
434
441
448
469
443
421
431
427
462
453
470
492
513
489
438
420
437
433
461
477
457
426
409
433
470
502
516
485
434
419
425
443
478
523
532
520
493
454
418
446
492
512
543
535
502
489
480
472
480
495
525
549
514
488
466
454
490
533
536
509
474
450
445
461
463
484
493
505
491
474
461
449
458
508
536
522
520
515
487
471
472
489
504
516
498
519
524
515
488
470
511
552
531
491
494
489
474
499
520
522
485
477
471
505
524
505
484
475
469
487
499
511
508
547
587
598
568
537
487
449
447
498
541
543
499
447
434
463
477
486
521
562
574
578
566
507
456
470
507
546
541
501
495
510
534
545
553
548
505
491
489
506
559
554
510
492
500
499
496
501
504
519
533
539
521
497
471
469
501
541
567
563
539
529
501
485
478
496
532
560
581
541
528
486
468
481
484
505
486
466
448
459
506
585
611
556
513
504
507
498
478
506
551
571
629
628
565
507
478
488
529
549
571
572
525
508
476
466
517
546
540
478
473
516
517
526
557
553
557
575
578
565
555
558
592
613
586
528
504
514
486
499
519
513
482
460
424
429
481
510
548
561
499
462
464
523
619
698
782
865
888
875
816
754
692
679
649
576
507
455
412
358
313
310
320
316
378
462
488
484
482
483
516
567
554
493
466
454
406
397
468
524
516
519
510
526
547
515
470
443
417
413
416
470
515
533
559
580
585
541
522
514
475
466
508
499
443
426
454
471
473
481
493
515
558
559
560
561
543
529
525
526
532
532
527
534
568
622
652
608
543
503
500
514
517
526
566
599
570
510
518
565
567
552
580
612
619
625
637
626
612
609
620
625
599
597
586
575
556
536
585
633
611
566
538
549
576
595
587
556
525
496
435
397
417
508
578
588
559
524
477
462
463
442
434
447
433
380
369
388
384
419
486
491
478
460
396
365
381
391
408
443
456
467
469
445
418
392
416
477
520
486
462
474
446
424
428
459
465
456
478
465
462
471
490
496
468
453
468
536
575
558
521
463
414
416
411
434
471
475
509
545
551
492
487
523
496
496
509
521
508
490
462
444
430
489
556
595
585
527
472
482
521
526
511
486
471
442
453
487
564
592
606
560
485
480
489
480
460
447
433
454
505
493
464
468
504
524
508
503
529
546
545
519
497
496
535
526
519
501
464
509
550
529
519
522
525
512
507
489
489
483
502
555
520
455
490
521
534
540
549
551
520
488
462
457
445
465
506
574
590
551
527
532
521
467
450
446
490
521
555
574
536
530
585
570
509
473
442
464
509
523
514
497
497
491
456
426
449
495
555
590
610
569
489
467
500
509
519
551
551
488
436
458
521
528
523
540
542
498
469
501
526
536
539
556
587
536
509
523
525
515
541
569
554
500
498
497
517
510
504
481
471
464
489
523
514
504
530
532
523
553
598
595
562
531
543
552
549
521
484
484
507
527
556
576
570
517
532
516
491
492
532
550
568
542
514
531
517
495
498
489
480
500
506
504
525
558
554
528
492
468
469
481
516
485
503
576
632
648
711
771
798
853
891
870
810
701
580
479
453
411
415
436
401
377
368
375
400
416
430
470
499
506
454
421
410
416
440
473
492
483
469
427
426
506
539
549
562
548
516
506
480
436
443
483
487
492
505
489
483
496
488
499
516
503
506
521
510
492
515
573
575
524
507
533
544
525
530
530
547
554
507
478
523
546
516
532
577
569
544
518
522
557
561
551
551
518
516
574
602
602
600
605
602
601
592
600
560
574
642
704
700
650
595
554
578
579
539
563
600
589
544
533
560
586
588
570
581
600
584
529
496
477
475
468
503
521
520
462
397
432
486
523
520
526
513
452
379
366
386
411
444
430
400
401
376
388
435
489
513
459
368
327
328
375
443
494
486
456
426
395
393
410
429
455
486
529
511
483
464
467
451
455
439
417
469
490
506
482
423
420
496
542
510
486
469
490
503
537
553
549
514
485
484
452
447
484
531
526
492
475
478
470
492
545
534
474
426
424
481
524
525
527
523
496
471
478
469
477
480
492
515
509
498
489
509
527
491
472
477
491
486
488
476
437
465
537
505
464
470
472
496
529
542
537
513
533
506
474
468
500
559
570
563
544
514
454
392
396
448
502
510
517
531
526
514
512
529
538
542
539
482
469
493
495
477
485
486
483
515
543
525
503
487
533
585
576
512
482
472
449
466
523
525
495
505
503
480
521
559
560
526
500
484
489
495
487
528
558
592
547
484
444
422
450
519
559
556
528
490
500
505
523
549
546
526
501
516
542
516
503
525
530
528
524
510
499
492
478
528
570
567
506
448
462
494
499
480
483
486
511
486
461
502
553
550
547
556
574
579
534
490
525
553
557
534
532
540
512
525
544
526
514
536
552
547
533
533
490
445
496
557
545
505
500
500
500
533
582
565
491
455
490
495
505
484
483
494
504
486
474
450
465
516
548
634
709
736
714
704
740
804
912
922
847
739
600
498
424
373
351
329
344
361
375
398
408
412
431
465
508
515
476
450
424
410
435
494
522
483
463
471
470
471
510
544
556
497
432
463
489
480
480
490
481
476
473
495
501
510
527
526
507
515
524
510
508
524
531
572
591
569
522
487
473
447
443
495
551
557
538
490
471
483
523
544
563
560
533
516
519
531
561
620
639
622
566
522
483
472
522
610
637
615
641
611
552
541
584
600
592
599
588
579
571
571
581
586
606
625
618
591
532
502
493
523
561
557
540
564
551
523
564
601
560
528
440
408
412
425
458
488
506
456
434
489
499
478
468
447
408
389
393
343
284
299
385
445
446
416
382
377
388
419
459
491
496
492
469
441
444
452
447
490
518
492
437
410
424
466
493
506
508
496
449
434
437
457
426
433
461
490
492
522
514
516
534
568
579
542
510
474
459
495
476
458
460
472
482
480
526
573
584
567
523
469
457
465
468
472
497
527
545
532
474
446
466
468
504
556
537
487
422
429
464
426
443
574
649
618
576
545
524
519
506
532
534
502
435
445
448
452
502
520
515
500
489
498
517
517
542
584
606
570
526
512
510
486
489
529
565
555
560
519
481
457
466
474
480
501
533
513
501
492
502
548
597
584
531
524
539
552
544
530
531
528
532
520
539
544
522
463
434
463
489
489
560
629
633
581
531
528
574
586
547
500
494
513
525
521
523
505
502
508
541
548
541
543
542
557
570
575
563
577
604
587
582
560
512
488
495
535
554
532
542
565
573
552
514
520
538
539
525
521
545
547
565
608
610
560
558
511
483
528
560
532
519
473
467
495
521
539
529
542
561
515
450
399
425
475
536
573
577
576
559
590
592
603
623
691
784
854
850
795
728
700
696
670
598
509
435
396
359
331
329
361
418
475
458
415
386
399
430
482
497
487
460
440
467
487
483
506
512
500
481
469
475
494
506
533
518
485
473
460
460
452
470
502
492
470
431
409
440
470
466
527
560
538
481
420
385
412
455
491
523
514
510
495
461
451
491
533
546
544
528
515
511
523
521
488
488
460
423
449
473
467
501
585
609
594
600
591
527
502
560
599
586
588
627
654
639
567
539
500
476
523
559
533
557
551
516
529
581
611
619
587
524
476
494
552
593
605
543
481
477
462
460
464
487
547
548
480
394
344
342
400
422
400
384
417
454
470
480
500
468
433
438
482
525
480
434
448
484
509
503
470
461
448
405
369
357
389
441
496
515
517
505
502
489
506
557
566
535
472
448
454
464
464
457
462
480
501
530
579
561
532
476
433
424
452
525
582
548
513
533
531
527
512
508
530
536
517
466
413
426
458
483
532
545
529
507
518
546
521
522
563
561
518
484
450
429
417
445
552
607
570
529
499
521
536
528
515
541
533
470
399
391
421
486
568
600
540
423
380
403
482
521
560
582
572
557
528
491
475
500
526
543
532
535
532
494
483
514
557
588
563
510
455
428
448
509
548
572
547
495
474
496
509
542
533
559
579
571
494
462
486
508
532
547
534
538
572
597
584
562
566
554
514
480
458
426
435
492
518
509
499
496
498
495
486
504
539
560
571
548
490
438
483
569
602
568
552
532
515
525
516
484
449
452
507
517
511
532
540
548
574
588
569
527
502
472
453
498
587
663
651
589
540
509
470
474
511
520
516
498
478
473
503
512
537
535
493
469
505
528
512
485
510
560
599
636
687
750
829
878
875
854
811
719
639
528
443
422
421
417
422
379
374
432
455
472
461
424
422
466
483
469
460
459
447
446
445
466
480
502
488
446
457
505
524
495
503
484
479
500
537
595
585
565
531
478
453
462
484
496
508
487
479
464
449
462
500
544
530
503
474
450
473
501
531
560
589
561
500
465
453
472
523
582
590
562
491
462
509
547
570
550
537
501
508
491
488
490
540
589
615
608
609
567
506
491
561
605
612
600
616
621
595
577
574
594
609
596
571
550
527
558
538
529
583
564
475
422
431
451
469
486
492
467
438
448
481
484
475
459
457
457
456
461
422
398
376
404
424
414
425
424
416
389
391
416
416
407
402
419
439
438
433
444
421
396
401
412
427
449
465
475
444
424
396
384
437
479
455
487
549
528
477
453
449
445
447
435
474
526
507
461
430
423
461
508
558
544
492
484
484
467
487
543
550
522
500
509
494
455
495
538
527
532
512
472
448
436
456
511
520
501
479
478
480
509
509
532
536
515
514
520
570
576
557
558
536
496
447
406
424
474
495
518
546
530
494
474
464
472
517
559
571
520
461
444
443
436
475
560
598
566
579
571
542
499
466
489
508
533
547
529
508
503
496
529
529
489
487
510
502
470
445
508
564
552
512
494
488
520
585
614
605
555
455
447
476
489
513
496
488
517
496
472
470
470
474
503
548
538
546
582
563
558
572
566
559
551
490
452
463
465
494
536
562
535
515
553
529
481
443
474
523
512
500
530
547
549
575
611
626
609
564
523
501
487
495
506
546
531
470
513
557
534
492
519
550
545
498
468
455
449
445
490
521
527
522
541
577
656
730
786
810
817
843
845
783
698
648
618
575
505
441
407
381
354
373
409
424
419
408
414
456
495
506
523
513
471
474
459
419
420
465
498
504
493
479
467
442
447
477
510
526
514
488
494
538
526
522
488
474
481
479
499
527
505
490
494
493
504
477
472
485
518
504
522
542
523
517
536
554
553
547
592
624
589
517
487
485
510
541
551
555
538
534
534
537
552
571
559
551
564
542
535
571
618
617
623
637
621
609
610
616
618
652
683
688
644
590
578
575
573
574
589
619
626
591
542
460
409
471
531
565
540
499
496
544
571
563
531
510
489
469
474
446
422
402
431
454
446
436
433
440
436
431
408
414
417
418
457
448
394
381
419
444
461
446
434
435
423
460
468
479
464
463
470
460
421
389
433
490
525
501
460
453
439
424
442
466
505
532
530
528
504
496
517
540
557
547
461
401
389
423
494
577
617
577
488
414
432
467
498
475
472
474
480
503
507
504
532
554
556
559
510
467
440
472
506
550
554
531
489
494
478
463
482
501
505
504
510
523
502
472
465
496
549
526
493
514
504
492
489
505
527
550
518
468
429
468
515
547
539
513
443
412
438
494
524
532
485
466
518
536
502
478
529
561
546
532
486
432
434
439
474
546
567
509
456
453
459
479
505
505
533
519
503
493
484
499
533
527
472
455
460
505
506
488
491
530
546
542
520
487
477
499
527
563
549
493
471
474
456
441
449
483
561
573
509
486
510
514
495
488
474
477
467
447
446
499
554
564
536
530
501
471
476
481
512
534
541
546
498
462
452
491
542
543
535
501
481
490
493
492
500
504
496
456
404
401
478
541
550
543
516
510
543
550
536
521
524
541
538
536
490
463
456
471
501
542
520
464
426
417
443
432
428
471
474
515
583
622
683
721
787
869
908
869
781
700
617
528
462
429
417
368
309
326
361
398
417
435
473
503
523
512
517
520
477
448
447
422
414
450
495
484
463
492
455
381
395
465
511
530
507
503
498
462
445
500
542
521
526
531
513
501
500
502
525
548
525
570
591
555
520
504
503
480
462
502
520
495
488
470
476
474
504
587
622
627
583
545
515
520
545
599
640
615
563
546
539
538
547
578
616
591
555
581
583
589
618
650
637
613
590
528
489
511
616
681
722
720
673
596
536
508
517
566
575
538
526
536
557
536
529
559
555
496
462
454
464
466
444
446
463
480
483
448
431
431
449
457
439
452
423
394
408
443
440
445
454
459
448
431
388
387
401
433
438
425
432
422
418
447
450
451
449
446
448
445
429
401
416
473
480
458
457
456
506
529
494
469
447
461
468
440
403
395
452
494
513
498
457
477
507
505
493
519
550
549
501
441
431
457
465
498
535
518
475
465
467
493
499
496
490
471
462
430
419
443
503
545
562
592
563
523
504
499
487
472
459
463
448
468
514
563
564
535
561
527
470
441
447
472
491
512
510
478
443
440
444
487
526
540
594
589
524
462
404
397
451
517
595
598
523
500
499
494
487
503
542
546
514
489
455
464
497
534
543
540
529
519
538
535
500
470
492
484
426
468
461
440
455
507
536
527
508
502
499
483
502
527
539
527
498
475
475
489
517
542
542
512
470
451
477
510
532
559
576
542
496
489
510
536
541
507
473
451
444
489
516
501
498
510
544
553
523
509
510
518
498
497
536
549
533
525
506
456
444
476
518
529
526
528
522
508
492
494
503
489
491
506
539
556
554
586
605
591
569
537
530
522
516
508
546
532
525
487
445
454
507
603
637
601
565
536
514
493
484
517
546
557
513
460
464
490
472
452
489
511
526
549
539
524
494
499
594
696
745
782
839
889
895
849
776
702
619
537
466
407
391
385
403
426
423
420
435
441
427
444
493
499
463
431
414
440
461
496
554
586
580
533
483
446
449
508
511
469
460
514
530
500
471
428
475
538
527
504
500
487
458
452
500
534
544
533
502
518
583
620
609
563
525
520
514
484
449
463
505
567
599
563
499
462
441
482
523
558
564
582
567
529
548
595
616
596
587
589
583
570
539
559
598
618
623
596
574
580
590
616
636
617
610
621
625
591
553
570
577
577
577
551
517
538
541
538
560
550
525
517
531
504
492
519
524
510
527
523
473
436
438
467
472
442
411
393
396
419
421
415
460
475
431
374
317
330
386
411
435
465
439
404
387
424
456
482
507
504
449
436
461
452
414
417
439
469
463
432
425
442
447
450
477
500
478
448
445
427
408
413
474
507
537
559
552
511
467
477
510
547
527
479
437
418
436
484
531
546
560
523
502
476
464
449
480
490
449
410
389
440
463
432
490
583
586
571
567
524
490
502
480
458
452
452
449
481
512
529
562
566
542
506
494
460
451
457
479
478
475
508
526
479
442
453
542
625
612
528
478
458
480
542
591
571
510
495
484
473
466
470
501
526
550
527
490
489
507
495
483
520
554
518
473
506
544
542
547
535
502
509
505
478
459
455
471
507
533
525
516
513
517
542
589
586
553
515
497
503
492
477
480
467
486
539
546
541
563
550
534
528
510
474
470
481
473
424
471
544
558
548
528
525
530
540
551
549
507
488
515
556
556
528
532
529
508
489
466
472
490
507
527
531
529
531
526
486
467
440
481
541
560
546
518
511
497
483
510
561
567
517
523
528
543
523
511
525
511
482
506
542
519
486
483
521
527
511
474
482
512
520
547
572
610
591
508
472
475
510
512
502
509
483
428
437
474
498
550
571
547
507
481
482
508
489
466
486
524
539
508
488
529
559
635
745
831
859
843
816
774
740
706
629
523
433
379
334
303
343
400
454
484
488
491
477
455
449
458
468
474
424
398
412
445
468
489
529
516
480
469
462
444
463
530
539
516
491
488
505
513
481
451
480
494
494
499
499
505
489
470
477
501
508
514
502
475
501
545
569
579
554
483
467
509
546
558
546
516
513
508
508
494
509
547
557
591
611
558
504
507
530
556
596
591
563
566
583
608
632
619
621
623
599
536
493
499
557
597
631
660
638
598
568
578
582
594
632
634
595
534
519
544
564
563
567
584
572
533
471
415
395
428
525
533
461
443
431
456
473
498
505
504
463
448
424
404
415
451
494
474
400
354
378
417
407
384
413
442
477
473
425
386
368
406
498
541
540
510
475
417
404
455
479
470
468
480
471
457
461
444
467
524
528
500
458
452
478
500
520
525
527
496
481
511
532
538
565
534
465
442
496
549
563
559
556
523
475
472
491
483
494
481
482
487
512
525
528
511
529
517
499
498
548
528
473
492
506
521
567
576
571
533
490
457
442
463
491
491
467
432
418
473
538
559
548
546
540
521
499
502
514
548
589
597
552
476
459
500
487
486
523
541
514
452
429
442
474
514
539
563
591
552
501
515
524
528
549
554
532
498
488
496
508
506
512
539
549
561
514
497
475
471
526
582
566
511
490
493
548
551
541
552
531
458
436
479
502
536
555
538
556
547
501
482
479
499
549
568
561
533
526
528
496
466
499
544
553
510
484
522
522
492
530
571
543
501
455
427
455
476
508
543
536
542
553
540
538
536
561
569
531
510
503
468
487
551
593
586
565
502
457
468
477
497
533
590
617
562
495
433
419
477
561
585
547
516
480
482
514
555
557
549
546
532
532
527
517
527
529
568
604
563
522
544
536
523
580
614
582
525
494
495
498
476
464
464
460
483
520
527
518
538
551
560
536
497
450
440
489
534
550
607
657
660
679
756
847
894
886
848
774
665
544
484
425
374
365
379
344
352
393
417
459
488
493
501
469
453
467
464
481
459
453
458
478
507
467
428
416
420
474
489
499
506
498
511
530
516
537
564
546
520
527
546
509
464
492
549
544
489
490
498
481
461
467
503
494
463
448
478
512
534
547
568
548
518
516
530
550
535
537
578
598
574
543
543
530
550
550
566
580
575
573
555
525
501
520
565
624
626
579
549
526
540
566
583
601
613
625
613
616
612
608
646
657
637
597
565
546
515
514
561
586
573
514
471
532
567
577
593
555
488
430
407
421
444
464
503
534
478
436
434
417
402
381
361
380
373
392
441
464
479
467
472
455
420
410
423
410
407
435
493
510
481
433
387
393
417
462
522
527
467
423
414
403
427
486
517
506
476
462
421
443
502
539
533
507
482
457
469
512
528
504
465
449
441
468
489
471
460
473
503
512
489
480
499
514
532
523
533
553
528
454
459
489
489
487
501
516
515
504
491
490
473
453
483
531
509
455
424
426
447
448
499
543
545
494
491
533
497
491
516
538
529
506
477
504
544
575
560
505
414
384
418
442
453
474
523
567
584
578
528
454
425
410
448
499
522
526
513
488
472
513
532
519
505
507
510
531
493
482
506
533
542
536
501
454
451
478
523
544
538
520
495
489
484
531
559
550
517
468
473
468
490
517
549
574
541
484
499
509
545
576
565
526
489
462
446
454
482
523
566
573
562
529
479
454
476
509
542
582
548
471
424
423
476
529
557
574
564
535
545
537
559
557
525
514
485
454
485
507
504
512
558
543
502
504
528
502
494
512
530
547
550
504
433
437
449
488
598
653
601
529
480
434
409
476
552
593
559
508
465
452
494
533
546
562
563
521
518
516
517
535
589
624
576
518
515
543
547
529
522
525
486
445
451
459
512
554
575
579
533
482
448
422
416
458
505
515
501
494
505
531
564
604
664
744
818
856
858
858
834
759
695
628
566
454
370
346
352
370
424
461
455
388
373
419
459
500
495
457
426
438
433
447
449
439
454
479
510
521
520
545
553
516
509
511
512
458
424
434
469
496
507
521
498
484
470
444
450
482
501
489
487
501
508
533
524
537
570
555
562
567
525
527
542
558
586
589
588
589
558
506
485
501
479
507
580
598
588
567
535
529
565
576
563
558
558
561
534
552
598
645
647
628
622
626
622
598
587
584
631
610
549
521
559
606
618
620
630
614
587
569
573
586
592
580
554
533
517
488
475
464
453
483
484
452
457
464
434
429
444
473
487
456
408
384
348
344
406
445
489
486
454
456
408
385
388
413
435
434
407
397
393
401
426
438
476
491
467
456
404
345
348
396
442
444
465
486
485
471
499
530
545
521
481
463
479
493
491
481
481
470
457
444
439
415
433
493
538
525
478
450
441
443
476
499
526
536
530
500
489
474
470
511
521
519
521
523
493
483
512
529
507
458
425
416
408
463
503
539
543
522
495
480
484
491
500
528
537
496
476
483
489
478
484
534
556
523
485
449
459
479
499
498
507
458
427
459
509
528
534
566
551
538
514
475
469
467
480
465
438
468
506
529
507
480
506
526
500
499
492
482
504
541
563
551
527
523
484
453
427
466
490
505
542
550
562
558
526
482
505
536
546
531
514
491
443
433
465
483
480
500
540
555
529
490
517
558
580
532
502
534
545
508
509
508
508
496
448
429
424
434
480
557
572
547
535
517
499
487
509
534
514
513
510
527
540
499
449
463
448
468
497
515
516
524
532
544
542
509
492
489
518
554
562
568
560
561
562
547
530
500
497
521
519
480
447
467
494
507
520
538
549
551
540
513
501
523
566
573
567
521
483
485
512
534
546
565
595
550
485
483
535
539
566
608
586
531
504
486
469
460
474
502
512
464
456
472
487
533
598
664
700
728
797
867
915
908
837
779
720
609
468
392
359
362
372
363
352
365
347
327
369
423
469
501
526
502
481
491
473
460
462
492
518
509
504
534
532
507
502
523
572
581
535
460
409
434
461
501
548
523
485
468
458
471
498
539
547
536
492
522
580
577
579
615
610
534
502
467
447
480
503
524
531
546
550
508
463
474
508
545
578
561
524
545
564
587
599
613
605
616
613
565
571
568
542
552
590
608
594
583
589
586
608
657
638
592
528
543
599
607
619
642
636
604
562
530
531
533
521
531
587
572
536
537
535
513
505
507
532
546
517
490
489
487
506
546
497
429
398
384
395
397
387
406
448
477
426
391
365
358
402
430
473
507
521
478
411
396
387
396
432
458
447
454
457
447
455
472
500
536
492
463
453
444
454
478
493
486
474
487
515
533
539
512
506
484
482
510
521
481
449
467
526
564
549
506
470
458
480
548
591
591
550
514
543
582
594
551
551
542
517
481
460
470
494
525
535
527
537
549
529
510
516
504
498
530
569
582
575
567
553
548
551
520
509
504
491
485
476
513
572
558
511
467
469
518
575
601
623
547
484
455
460
492
513
532
561
589
593
533
469
418
431
499
543
536
512
500
490
479
483
502
524
542
534
504
515
517
484
434
441
499
510
510
517
529
558
564
556
497
446
464
530
561
527
492
513
519
512
496
477
497
501
517
552
556
540
473
410
467
511
510
512
495
479
484
490
466
441
481
527
532
511
495
502
554
581
564
543
531
494
442
429
439
459
495
484
469
481
477
454
444
477
520
506
516
528
518
552
563
510
483
501
517
475
457
481
513
493
497
538
548
511
496
507
517
532
559
584
571
509
446
366
398
516
582
587
556
537
527
502
496
498
494
502
505
478
444
490
478
472
496
541
574
590
592
596
641
665
736
841
883
876
779
701
650
541
458
422
377
368
374
377
359
376
409
415
393
411
450
464
490
502
500
469
472
510
507
456
442
471
509
501
504
509
518
499
492
506
496
471
440
448
469
488
490
483
541
584
591
550
500
480
485
495
521
559
580
581
533
506
502
519
550
555
527
535
558
567
564
573
570
560
548
498
469
473
554
627
600
556
554
558
530
513
495
507
578
633
649
641
557
527
599
644
643
598
559
542
523
544
597
635
641
615
623
616
581
549
516
505
544
566
556
562
553
527
532
528
537
567
541
451
427
458
492
508
502
502
520
460
393
382
386
414
430
449
420
359
321
330
402
464
501
530
491
455
463
462
419
371
393
426
437
436
450
452
463
472
461
460
445
412
444
481
478
469
455
481
484
494
484
471
443
440
458
496
539
558
553
542
495
450
451
465
454
431
456
489
499
499
510
542
550
504
444
416
464
504
500
524
565
576
521
484
485
493
467
448
438
453
452
463
488
508
517
526
562
527
497
488
481
510
517
515
534
531
506
501
514
468
458
554
590
556
512
500
487
468
437
424
456
496
502
525
552
539
545
568
530
499
480
482
502
521
528
510
495
480
454
473
443
456
492
516
503
520
561
553
513
486
525
575
586
550
496
512
561
555
500
469
414
374
389
436
479
500
492
531
572
546
532
537
545
540
537
555
569
518
481
507
538
529
527
501
537
562
540
507
521
533
507
510
556
565
515
484
508
554
561
542
519
479
444
452
466
481
519
567
599
576
547
530
519
525
534
547
564
577
543
528
535
532
535
605
614
550
541
530
491
469
450
501
558
557
531
500
457
454
489
527
549
567
562
549
547
560
584
600
647
716
752
759
788
830
814
758
720
677
609
524
404
338
342
376
417
457
435
381
360
392
437
487
506
514
493
472
483
490
500
509
522
546
531
444
374
410
451
478
499
528
526
497
487
505
531
517
498
512
498
487
495
515
517
525
565
578
537
507
487
467
479
513
524
490
478
489
492
470
467
502
543
585
578
553
536
546
561
503
527
556
545
549
556
573
583
548
492
491
517
534
547
582
593
610
640
605
554
533
545
616
657
647
639
625
616
592
570
524
486
526
578
545
498
501
561
573
546
543
586
615
568
519
490
495
500
509
492
488
452
408
407
442
406
422
478
505
440
401
434
443
411
439
444
399
384
376
381
378
389
435
481
517
447
388
426
439
405
453
494
468
406
360
359
375
409
433
480
510
471
439
399
398
435
455
480
483
482
507
512
482
469
450
450
460
466
470
445
461
481
482
512
517
492
488
522
513
494
486
490
489
503
474
458
481
509
491
493
501
468
442
404
447
508
535
568
550
518
500
506
525
524
495
435
455
503
533
519
488
485
498
559
596
565
503
455
425
454
530
597
573
523
471
430
432
443
446
491
536
548
523
488
461
456
493
520
552
564
512
481
496
499
477
495
522
518
505
520
506
488
537
567
527
480
472
467
467
468
444
473
510
518
515
531
527
522
516
524
540
537
510
482
420
392
446
509
516
511
496
474
484
494
502
532
580
577
539
500
477
452
463
480
464
476
505
521
488
470
491
514
535
513
534
533
518
464
455
486
486
528
587
546
478
465
500
538
550
529
508
517
514
510
531
527
542
551
497
438
458
507
538
584
585
560
528
516
521
484
487
517
539
512
497
485
468
480
510
566
592
544
524
465
458
485
490
489
507
537
538
551
565
613
664
747
786
818
842
805
740
710
652
589
525
427
358
327
363
423
444
459
453
424
451
482
470
441
450
483
509
516
482
467
468
466
489
465
437
462
488
491
479
469
479
499
509
497
479
471
507
522
515
510
472
446
437
446
451
464
434
474
540
522
502
496
529
564
560
565
562
528
498
493
500
498
480
496
518
520
516
524
532
544
520
549
564
535
521
488
496
532
552
588
607
589
531
513
560
598
592
603
632
632
618
608
575
567
600
614
563
530
557
588
604
625
645
590
535
527
539
518
501
486
487
526
580
611
596
538
467
451
470
492
499
464
438
421
412
417
388
412
475
479
455
430
403
382
406
451
440
373
340
368
426
484
473
433
416
420
441
456
470
490
475
464
469
475
465
440
449
483
463
440
426
456
434
408
418
443
450
474
470
417
419
462
459
446
486
530
544
561
543
499
490
484
494
526
554
548
508
463
453
468
480
493
504
533
520
479
450
457
524
569
560
506
467
441
443
448
486
555
582
549
521
503
484
461
477
537
552
519
475
475
493
496
476
469
501
513
529
509
490
467
472
475
490
536
547
537
525
510
516
535
560
547
510
486
470
476
472
507
547
522
484
454
484
511
511
499
489
476
468
465
469
496
521
544
549
550
542
524
505
492
488
490
489
512
517
488
476
476
506
559
571
551
531
488
489
472
467
515
552
543
515
509
518
509
500
505
548
551
507
480
498
493
475
500
539
544
530
521
523
521
509
513
551
562
549
512
513
506
500
495
512
527
513
464
457
502
536
549
557
543
545
505
456
439
460
523
601
560
471
468
493
503
527
545
572
576
542
466
437
508
528
497
481
485
499
515
554
585
601
582
587
608
574
518
491
473
500
542
538
536
529
527
516
494
486
516
517
511
485
471
482
498
488
490
507
497
492
486
444
476
544
641
755
856
926
924
867
798
737
680
618
555
467
398
370
347
349
370
369
403
406
411
456
485
478
483
515
516
487
466
475
491
466
430
443
460
512
487
447
450
454
470
521
568
544
479
436
444
431
456
501
508
535
513
450
439
486
545
598
590
494
417
414
436
491
514
507
521
535
532
522
533
537
541
569
570
560
544
533
546
547
522
538
553
540
526
524
557
561
560
588
590
592
557
506
512
540
583
636
653
650
621
599
599
610
603
601
591
574
598
616
609
576
556
566
588
589
547
516
526
536
563
585
569
547
492
509
547
552
540
499
453
437
408
391
409
392
384
396
411
450
458
448
432
393
398
455
502
478
407
399
426
423
431
506
544
507
431
388
371
391
434
410
400
411
414
426
434
451
492
539
550
521
504
483
450
437
472
508
529
489
467
461
492
518
535
518
501
506
474
457
442
425
444
499
547
523
472
457
480
485
460
497
595
586
542
499
486
530
535
518
514
476
465
455
455
476
494
516
503
481
489
498
496
503
496
521
544
511
471
436
449
484
519
552
560
518
480
478
474
470
485
519
523
498
478
467
496
513
511
521
535
530
517
504
496
516
496
479
484
506
514
499
467
495
531
515
507
486
454
479
504
519
498
500
512
500
497
449
448
490
529
597
611
567
534
500
478
503
513
510
485
490
520
509
501
492
509
535
574
570
517
497
496
445
422
458
515
524
525
514
497
486
495
503
523
532
560
547
565
594
569
518
486
472
464
470
446
418
435
487
518
523
505
498
499
510
556
584
556
531
514
495
502
519
491
476
464
449
463
535
598
596
567
570
575
516
469
438
432
459
487
490
487
483
488
514
532
546
545
557
595
610
574
521
481
448
438
455
512
554
529
498
523
554
593
601
574
552
499
488
503
530
558
570
581
560
529
513
464
464
488
519
535
536
499
439
463
493
475
487
544
588
610
627
675
744
776
798
846
861
810
731
644
569
545
494
429
378
346
356
373
390
396
420
462
479
445
438
452
484
523
553
549
513
485
483
468
457
454
455
468
461
442
409
414
454
491
510
557
553
501
441
372
382
437
470
498
529
527
526
534
535
542
567
604
597
557
519
468
444
431
450
508
550
538
511
495
495
486
500
553
602
566
505
476
474
508
559
591
573
554
551
558
557
588
599
625
634
623
555
515
560
569
558
562
581
619
629
608
587
593
597
580
551
528
536
562
585
606
618
646
676
655
601
564
516
504
525
539
542
513
465
448
419
419
415
411
453
473
476
476
478
477
481
484
467
433
390
357
412
463
488
482
469
451
425
367
380
417
421
402
416
422
379
389
442
465
459
441
407
411
431
432
476
483
468
458
441
466
488
499
499
515
520
524
504
467
499
483
459
463
457
488
510
507
465
465
476
479
478
499
531
528
514
498
503
501
482
501
525
522
491
473
467
475
481
493
526
524
523
479
439
449
475
507
520
517
519
519
518
496
518
571
619
617
556
447
421
424
424
439
473
477
491
514
533
538
510
479
482
526
527
495
473
474
500
532
563
574
542
501
501
505
530
562
579
546
512
503
504
487
471
520
540
522
495
442
404
446
528
564
558
532
508
496
490
495
512
541
558
566
551
509
483
470
439
470
544
589
547
485
482
516
527
521
495
489
514
543
542
532
511
516
541
550
538
532
502
522
544
532
534
529
492
458
431
507
540
488
504
513
530
508
491
530
547
549
534
506
508
527
519
496
501
530
563
565
554
527
524
535
531
506
509
529
520
492
496
486
495
525
539
548
515
495
480
456
470
525
550
549
529
517
556
557
551
554
549
574
564
514
488
497
500
490
518
558
552
506
506
525
508
506
527
546
525
500
516
541
523
530
554
591
613
587
555
546
530
564
590
579
536
480
429
428
448
453
461
512
570
574
522
508
483
490
506
506
459
440
496
584
666
724
774
810
834
852
824
750
648
556
529
538
514
424
385
381
425
449
441
433
418
429
440
430
444
480
520
525
510
471
423
418
434
460
514
533
502
464
444
456
447
456
507
502
503
500
490
493
479
492
508
448
447
506
525
533
525
534
554
504
461
453
473
503
524
530
547
544
524
513
506
504
495
498
487
495
507
488
478
503
537
565
597
623
587
570
534
505
526
562
592
579
555
528
552
590
579
566
574
539
520
535
578
626
634
619
605
598
594
634
643
612
598
609
620
598
566
548
512
518
539
572
574
559
560
573
567
495
431
416
440
477
486
448
435
438
470
458
439
439
439
437
450
440
417
396
416
451
443
416
411
404
436
478
488
475
436
410
425
440
440
401
435
474
492
458
431
416
417
405
440
477
498
498
507
485
442
398
454
518
507
466
454
476
500
515
534
555
511
480
455
444
474
484
513
544
538
499
462
440
420
462
556
583
558
505
508
473
426
452
507
529
541
527
506
519
546
543
555
548
502
461
435
451
474
488
489
506
496
489
507
533
541
568
591
520
457
449
483
518
498
508
514
530
523
539
534
533
502
504
535
540
522
481
485
467
486
525
535
546
549
535
557
522
462
461
523
549
531
536
543
543
557
548
542
553
524
456
416
406
463
519
531
554
597
569
539
522
524
525
534
566
565
528
502
482
499
536
517
501
514
515
508
509
542
548
513
519
521
473
484
512
503
524
555
572
553
518
521
527
479
451
493
541
554
539
497
499
502
527
586
599
521
448
438
469
488
482
522
607
604
550
506
504
522
509
509
571
585
536
503
521
545
568
578
574
537
533
550
554
526
482
528
530
516
501
508
488
486
535
557
559
555
510
452
466
534
577
588
596
587
528
492
489
494
492
521
536
515
517
562
592
579
571
608
606
561
519
455
442
451
469
523
553
559
555
531
520
484
449
471
493
518
495
450
465
513
550
596
642
674
706
754
802
853
849
832
819
767
652
540
465
400
378
378
397
410
375
356
397
459
466
456
482
483
453
447
446
476
517
531
536
492
473
496
476
486
493
497
519
533
482
458
467
460
459
473
491
510
528
526
486
471
472
508
549
563
520
462
444
462
475
532
605
628
583
519
499
503
497
546
569
530
494
494
476
489
508
545
583
600
605
560
516
514
563
602
600
570
556
558
563
565
612
624
629
643
635
603
561
559
567
578
590
579
581
584
578
586
631
679
669
646
621
599
589
557
526
534
564
558
522
507
535
552
556
559
564
507
451
430
425
441
464
447
427
452
457
409
402
424
436
443
441
413
388
400
421
395
431
467
460
458
460
444
406
379
387
446
452
439
416
417
402
404
443
473
485
454
427
429
472
465
456
472
519
538
527
497
454
411
430
477
523
522
482
423
439
442
483
537
548
550
536
481
447
452
468
497
525
533
501
464
455
426
436
478
528
550
545
552
523
489
468
487
506
507
498
474
458
480
479
481
502
530
504
446
445
478
517
523
530
549
542
509
488
486
468
465
507
541
528
504
516
499
475
451
531
567
527
477
433
439
459
478
519
514
500
484
511
505
513
509
482
485
479
465
479
530
560
538
540
508
484
470
486
515
513
491
487
478
486
493
522
501
478
462
484
478
488
490
475
475
473
488
520
541
510
444
452
502
514
527
555
576
557
490
443
424
405
466
517
534
533
496
467
472
484
489
543
540
501
486
489
510
510
513
566
555
512
491
483
508
537
522
477
448
475
492
499
524
529
503
537
575
599
570
456
400
442
534
568
568
560
522
505
498
508
525
537
557
576
604
617
578
496
464
493
505
490
462
441
452
492
504
548
566
526
465
468
543
546
496
513
505
499
500
477
471
520
537
568
630
686
720
745
782
802
821
826
805
737
639
552
475
395
336
334
364
420
440
432
397
380
414
456
493
518
517
469
377
349
372
413
470
475
464
470
487
505
503
523
527
470
426
446
450
445
440
477
538
531
491
493
522
521
534
559
586
576
531
513
498
496
494
513
503
479
445
432
473
500
517
548
561
551
572
558
542
546
538
547
559
568
556
524
522
536
554
591
611
581
517
495
515
531
548
590
603
580
543
546
587
594
601
616
676
704
691
622
555
515
501
536
601
609
570
556
573
553
531
557
576
563
526
505
502
515
500
495
498
456
416
361
348
407
434
450
459
502
513
502
460
422
408
391
370
365
381
408
414
410
379
377
405
463
454
394
375
406
424
455
447
414
404
411
387
376
427
515
561
486
404
384
395
423
456
487
512
508
481
452
444
490
508
520
527
526
487
451
458
463
460
457
485
510
497
491
478
488
477
498
563
565
518
508
485
457
429
447
475
500
545
535
541
542
507
469
472
517
539
509
475
462
456
474
500
477
468
490
522
515
514
549
542
524
489
474
457
474
486
490
537
561
531
503
507
511
507
515
522
523
532
528
493
486
511
520
547
531
498
475
457
456
465
505
561
547
503
467
471
510
539
550
516
523
513
509
488
509
540
548
586
608
600
558
515
474
463
472
484
487
508
507
477
456
480
540
582
565
526
518
511
516
509
518
534
538
550
553
564
541
525
523
514
527
539
520
473
412
399
468
537
549
560
573
589
573
543
542
548
540
537
514
505
514
508
523
535
542
553
539
512
489
513
533
573
568
507
464
484
534
609
637
642
620
549
467
473
534
561
543
557
574
570
520
471
464
469
498
552
575
530
485
497
520
510
477
461
486
532
569
640
707
739
788
901
972
954
880
816
708
554
447
422
417
373
338
288
268
273
326
425
497
471
430
428
430
441
467
538
541
508
491
455
421
438
482
532
589
576
504
450
441
430
449
500
522
507
493
470
453
460
486
503
528
549
537
483
429
388
406
494
555
562
539
532
556
560
552
526
466
453
452
468
488
539
556
565
572
541
513
529
566
550
513
538
571
560
549
564
534
510
537
580
577
558
556
570
590
575
570
593
638
672
643
581
574
590
603
583
574
555
555
532
528
580
633
642
633
555
477
462
465
477
520
560
573
529
455
421
437
455
479
504
474
448
469
446
420
427
447
421
391
352
318
330
354
389
409
427
470
462
421
367
358
438
460
453
466
499
494
444
391
381
376
400
418
424
430
417
382
354
414
491
524
537
522
503
434
423
446
491
527
519
471
441
442
481
503
509
520
539
496
465
466
472
445
439
482
480
456
418
433
489
518
532
501
484
484
521
507
486
505
540
560
549
506
456
435
446
459
480
500
526
502
449
426
461
472
487
529
512
476
461
477
466
453
440
471
518
531
532
552
582
552
530
517
506
495
479
444
440
460
504
542
554
563
540
475
477
460
466
494
498
493
477
472
480
495
510
495
504
554
520
499
467
483
552
570
556
527
490
468
491
514
528
537
499
463
460
462
474
477
516
542
531
500
486
469
454
452
480
522
553
534
543
537
511
500
507
482
476
459
436
425
416
436
513
558
563
532
507
507
514
513
514
523
484
437
419
455
513
543
560
571
546
536
537
534
539
544
544
552
543
487
474
471
463
458
489
523
558
535
474
467
487
509
537
557
530
497
456
438
452
533
638
699
719
732
752
804
817
838
850
808
743
653
539
446
409
337
308
341
375
399
382
399
408
424
457
506
493
437
410
422
461
501
511
515
516
486
463
482
481
503
548
565
543
510
458
476
520
484
459
474
505
513
484
503
516
514
550
573
574
502
505
494
504
526
537
549
572
580
568
563
593
583
578
567
541
535
495
493
525
562
577
596
586
538
512
538
611
628
576
594
606
572
532
540
592
614
607
572
560
570
576
555
585
607
638
690
713
692
620
568
569
591
579
576
572
592
599
608
595
614
657
619
569
557
529
531
520
515
492
476
464
460
441
443
451
446
463
484
473
485
463
430
451
467
473
466
466
451
412
374
370
370
408
449
468
439
377
364
381
425
451
470
511
547
516
484
463
439
428
439
491
492
468
440
440
455
468
495
538
530
512
499
477
495
520
535
548
517
487
493
509
533
533
504
482
476
479
489
468
439
467
509
530
521
502
483
472
496
534
574
583
565
521
512
519
504
501
487
492
516
521
524
499
486
476
467
496
488
492
499
517
533
534
558
551
503
441
446
462
500
548
582
572
507
474
485
497
495
494
479
473
472
482
501
517
501
502
537
520
499
481
469
477
490
536
606
642
602
534
501
500
505
524
544
537
512
517
498
491
518
524
535
540
547
539
504
492
468
513
571
574
542
500
467
463
481
488
459
507
567
538
510
512
496
499
564
595
550
506
502
494
475
499
555
592
593
584
547
506
504
507
542
535
494
499
496
506
557
555
553
567
549
494
470
461
470
497
553
600
611
593
565
518
496
507
517
507
540
536
525
532
498
459
490
546
561
526
499
468
465
448
539
618
595
558
598
643
716
760
863
963
948
831
705
605
523
487
475
468
437
389
362
342
341
356
415
473
452
415
437
485
493
487
519
540
532
498
462
469
484
481
498
506
521
514
480
493
489
462
484
531
520
458
432
413
404
442
498
556
564
549
523
502
488
492
527
535
539
522
507
490
479
501
573
582
547
514
514
535
548
550
548
574
586
560
536
530
524
492
494
517
546
556
587
569
557
561
564
584
584
584
609
609
586
585
613
613
606
585
570
571
560
559
591
642
659
620
594
595
567
547
561
545
513
449
467
507
530
578
598
564
516
513
498
496
451
429
426
434
438
408
399
424
478
476
445
449
465
410
352
410
457
454
445
454
471
467
444
428
394
380
395
445
488
458
435
407
396
431
436
436
425
427
433
444
455
453
463
475
478
460
484
502
501
495
497
524
516
497
524
522
492
463
466
478
491
513
500
462
440
454
500
544
545
504
452
454
450
442
449
496
536
516
509
546
547
524
514
502
504
492
483
480
463
452
477
526
515
480
473
490
495
467
448
463
506
513
508
481
469
453
466
535
559
526
486
448
445
474
501
515
517
480
435
469
499
486
493
509
494
478
487
522
554
538
496
503
506
505
477
462
484
498
505
542
552
498
478
479
472
447
466
544
539
535
515
467
470
483
482
505
529
517
484
440
452
471
479
498
503
506
500
527
528
494
510
536
529
512
485
475
483
514
533
547
567
546
497
491
472
475
476
498
527
539
530
515
506
517
508
527
522
494
473
446
453
467
502
557
564
545
536
512
481
473
500
574
577
547
496
471
499
520
514
513
518
510
516
538
524
517
503
510
506
507
513
487
495
524
518
554
565
541
483
481
473
474
480
477
499
518
492
503
534
574
567
529
493
449
440
444
487
585
695
789
833
843
847
821
775
701
655
604
549
485
418
377
375
396
417
438
482
490
457
430
424
440
455
490
461
455
440
427
431
460
460
479
520
545
504
484
474
463
488
527
529
508
495
488
462
478
492
501
505
474
441
402
383
447
501
547
549
532
539
547
548
507
483
510
541
563
537
524
547
558
554
567
577
582
555
510
490
468
496
552
590
590
553
515
495
514
532
563
618
634
639
619
612
573
559
626
669
644
621
618
601
604
563
575
600
581
524
509
540
570
573
592
617
613
583
569
549
547
557
558
561
573
567
559
513
483
463
436
415
440
471
460
438
406
396
440
477
469
421
386
399
405
417
433
407
411
419
413
442
426
401
380
400
450
459
500
498
484
478
475
457
430
421
422
434
439
431
445
465
487
487
446
441
460
485
509
497
467
441
451
477
463
470
494
509
511
494
469
513
518
530
568
594
540
473
456
485
523
519
518
516
512
508
517
502
473
453
465
486
474
462
482
520
545
527
506
513
533
514
497
495
499
499
505
514
518
501
487
505
512
480
515
541
530
520
511
478
494
499
485
494
486
464
469
486
476
497
557
566
525
487
462
482
499
511
525
506
470
496
505
511
538
569
582
604
572
524
470
439
437
463
507
535
509
476
497
511
495
485
519
521
466
485
537
524
529
551
572
569
541
535
541
526
506
486
501
513
491
488
492
499
499
487
476
515
552
542
497
467
462
475
531
564
560
528
497
490
497
494
502
553
557
511
497
503
490
480
529
569
574
488
439
431
439
429
450
525
571
550
511
516
535
547
519
534
564
505
463
483
498
486
507
544
540
519
481
433
424
443
495
565
600
595
553
519
506
513
539
558
558
558
566
547
548
547
555
552
510
483
468
484
534
538
519
508
527
505
470
473
473
482
499
544
552
506
490
536
536
517
520
510
527
551
535
497
499
512
533
594
659
718
784
805
839
889
900
847
732
608
510
429
381
358
354
353
351
325
353
430
481
492
475
455
500
512
466
454
480
480
475
506
513
511
454
413
412
435
474
543
589
573
512
473
454
406
405
472
505
493
476
453
443
467
502
533
523
535
541
520
465
452
457
493
459
450
489
516
517
485
481
549
587
606
594
576
553
539
535
564
611
601
563
533
512
496
498
555
578
538
479
477
534
575
559
594
631
641
631
599
573
600
605
604
626
618
597
583
580
591
604
631
647
627
594
581
547
515
519
551
567
536
500
462
431
434
483
540
568
541
506
468
431
436
441
447
460
431
431
442
453
472
479
434
383
385
394
392
370
368
378
393
408
431
454
452
432
431
449
493
497
472
460
503
507
496
452
432
424
422
405
375
403
435
448
477
501
453
421
427
465
484
478
513
507
482
454
473
503
513
522
512
538
552
527
517
504
492
447
444
481
499
480
460
493
507
490
511
526
500
508
483
449
445
470
520
556
566
552
509
474
465
471
487
484
497
510
542
523
455
424
430
428
447
479
501
526
521
509
519
531
535
489
458
463
515
538
565
555
513
491
486
485
495
530
574
558
512
474
451
459
483
493
525
565
496
427
452
519
521
501
517
546
531
509
506
528
539
525
535
532
553
552
506
506
489
463
472
504
497
476
509
547
563
544
521
512
492
490
473
486
522
540
547
559
529
533
547
536
500
476
492
522
542
535
507
480
473
485
474
492
515
524
510
478
461
493
534
564
559
503
453
433
458
494
561
588
569
522
479
466
493
516
543
528
509
484
496
514
510
489
517
575
557
536
550
538
509
488
479
541
578
580
512
449
477
508
564
589
558
512
488
499
482
469
534
591
565
499
495
508
514
520
577
609
599
564
536
542
548
517
519
543
549
551
527
486
456
460
479
489
466
448
484
492
487
503
523
522
488
478
502
488
495
517
600
659
701
766
821
837
847
850
799
716
615
517
448
415
393
398
406
430
454
443
411
401
397
390
423
455
471
483
466
446
443
428
432
452
488
516
501
515
556
554
521
501
494
465
428
446
471
479
489
526
528
507
474
468
482
478
490
495
493
486
469
496
551
592
572
569
521
496
501
494
489
495
522
555
572
548
537
539
550
528
546
579
569
540
552
558
575
579
551
581
616
589
542
516
528
547
596
630
621
622
617
613
600
582
604
606
587
564
589
632
650
627
609
615
612
586
533
492
490
528
557
586
575
528
522
527
556
538
512
496
513
505
483
451
420
444
460
472
459
452
456
439
406
427
454
458
433
380
377
424
446
441
451
511
527
489
434
405
382
356
390
438
468
452
433
431
446
451
462
479
487
469
418
398
408
420
437
486
524
488
481
461
483
504
514
521
537
524
505
476
483
488
487
479
468
473
471
462
473
464
490
512
516
476
459
476
463
450
451
499
540
540
526
536
540
520
507
520
523
496
453
464
494
528
561
557
521
479
503
469
443
488
529
541
490
492
483
478
502
528
547
541
538
523
494
476
490
494
470
493
517
494
498
512
497
502
532
545
544
505
483
469
446
449
481
520
536
517
479
496
527
532
516
523
500
457
456
504
526
528
548
564
534
528
524
489
484
510
533
558
532
493
466
459
493
531
546
536
519
470
411
455
485
478
506
565
562
557
543
521
539
532
542
542
530
498
470
450
476
531
578
608
563
478
425
420
452
486
513
567
577
546
492
480
486
506
544
580
572
501
443
468
519
541
575
603
571
496
422
372
387
462
523
544
569
578
568
564
552
539
498
529
548
490
444
443
468
477
498
523
513
482
492
520
571
613
605
584
555
527
486
461
477
517
539
566
557
532
534
579
551
530
544
562
561
519
480
477
477
451
459
518
576
594
579
550
508
462
464
510
538
521
496
470
468
485
533
565
577
569
496
463
477
488
486
579
719
816
855
880
858
817
791
742
636
554
494
418
331
281
301
347
413
452
430
399
405
429
431
430
471
504
489
485
487
487
472
478
494
502
500
472
436
418
375
396
468
484
447
457
465
452
442
517
556
540
535
528
531
514
488
519
557
518
504
483
485
476
461
517
563
540
500
510
529
533
525
528
536
561
566
516
487
510
532
557
564
564
580
572
562
571
585
545
509
529
514
523
551
563
548
564
620
661
671
661
623
609
621
642
664
654
590
559
581
579
572
608
650
640
622
603
566
545
496
479
534
550
515
478
486
531
514
541
552
559
553
508
452
444
465
473
447
443
421
396
385
400
416
446
448
429
384
374
366
346
359
434
513
518
471
455
499
504
435
413
449
448
409
384
396
438
453
421
426
456
498
480
455
426
446
508
538
526
485
446
450
485
534
531
512
464
437
396
363
413
504
585
584
525
460
445
457
477
483
490
536
562
519
484
462
479
499
521
546
541
522
497
465
449
437
447
491
538
538
550
544
514
456
457
466
469
466
450
483
518
506
510
548
564
543
503
470
472
476
489
520
544
522
487
460
465
484
510
513
488
465
439
474
523
520
509
498
473
470
465
464
499
500
494
538
539
528
525
533
553
562
566
551
530
498
450
392
410
485
510
540
564
553
552
565
551
494
480
480
474
467
458
462
478
488
504
535
529
507
500
508
534
516
504
535
538
500
488
519
504
507
541
562
530
519
492
475
487
484
490
502
526
492
491
483
491
509
506
533
563
542
508
502
533
542
516
506
539
537
501
483
496
532
576
557
522
504
481
470
472
466
474
497
532
533
520
508
509
543
565
588
592
561
492
445
448
466
510
559
566
522
500
518
512
489
492
521
532
564
546
529
529
529
541
535
560
606
606
562
530
519
507
506
509
487
435
425
475
531
544
559
561
532
453
419
442
492
520
529
525
516
531
550
607
658
701
766
866
914
862
800
784
759
712
652
575
477
380
326
297
297
322
349
355
415
454
437
426
459
481
481
458
480
491
493
520
497
483
512
521
481
449
445
486
503
481
463
474
479
486
506
495
463
472
517
545
519
463
452
492
518
521
536
507
480
453
478
496
522
538
565
583
563
528
505
498
507
548
576
579
564
504
489
476
486
528
539
575
576
566
558
560
546
530
531
560
592
593
584
577
582
620
645
655
632
589
575
580
606
617
583
599
565
526
574
636
658
633
604
572
540
525
531
552
545
550
558
548
496
468
485
507
518
511
495
472
475
510
477
428
384
364
375
404
407
419
449
455
460
448
438
422
400
384
366
334
335
363
381
441
480
473
464
438
411
396
401
435
443
428
435
437
435
444
460
486
501
484
464
471
435
405
441
460
490
484
465
452
442
484
542
569
555
494
453
457
451
417
429
490
525
521
470
434
423
464
518
535
496
451
433
456
479
515
551
558
544
511
463
424
418
433
466
498
531
585
616
570
465
421
468
512
474
431
428
448
480
500
500
492
512
540
519
481
474
494
516
525
556
569
540
504
502
495
516
505
454
456
475
517
533
540
543
540
522
497
487
487
497
522
556
583
563
518
503
504
501
496
532
561
546
511
494
517
504
467
482
558
565
528
501
462
439
455
492
571
627
603
540
496
498
517
559
621
588
542
519
510
492
474
499
518
528
539
514
502
507
518
524
568
603
606
578
545
504
493
536
524
521
542
546
536
520
499
526
578
558
515
514
493
496
536
579
593
556
537
550
537
517
541
548
545
538
545
530
531
542
569
595
609
600
599
577
529
518
507
526
581
592
551
494
496
526
528
571
597
576
569
563
546
498
489
550
582
585
589
598
583
571
570
584
549
577
566
497
440
498
535
531
519
500
491
488
505
499
505
556
582
551
561
580
564
563
583
630
704
757
815
853
901
908
885
820
726
665
623
532
433
374
304
269
291
356
397
445
470
492
473
478
497
520
548
539
517
495
510
549
587
558
500
494
526
542
559
571
583
532
476
465
499
540
552
553
562
571
565
525
473
469
525
596
629
615
587
561
532
554
570
602
612
580
568
580
576
562
558
574
576
540
518
547
571
589
582
583
628
655
632
613
596
559
515
550
583
593
624
627
640
659
641
623
624
599
585
588
610
623
628
639
664
664
650
646
621
621
630
629
623
624
584
535
537
583
630
637
636
619
581
545
550
538
548
572
574
562
523
469
462
473
487
508
504
455
376
335
377
448
450
457
495
511
486
449
440
457
472
475
508
506
439
389
411
437
467
506
532
560
541
479
461
493
504
484
440
403
398
406
415
451
486
514
520
514
507
471
436
463
508
532
548
545
518
503
484
473
475
506
571
600
545
461
461
490
511
519
537
572
547
486
478
479
440
434
496
542
520
467
474
502
514
489
507
530
527
466
460
496
486
522
552
519
451
444
463
466
536
580
572
487
427
414
423
476
481
482
507
539
527
494
471
465
459
462
497
534
527
490
480
471
467
508
530
533
525
492
470
455
435
456
500
537
524
512
502
461
484
526
547
556
554
504
465
458
447
477
526
539
528
485
502
519
528
544
572
572
521
443
409
413
410
403
436
516
599
610
572
534
518
507
528
545
536
526
520
538
583
590
568
565
523
472
422
443
452
442
466
474
474
490
492
488
507
533
545
548
543
540
524
514
487
487
535
565
564
539
494
492
495
486
468
479
467
424
432
475
543
572
564
552
549
559
557
579
569
515
466
463
456
457
478
471
487
488
515
519
496
495
462
419
425
446
464
475
465
473
482
526
580
662
738
806
872
878
848
810
713
605
558
528
443
377
354
332
303
299
341
377
391
376
374
384
404
435
457
473
489
493
463
416
384
453
536
537
507
490
469
410
407
465
510
537
531
468
435
451
491
517
557
543
489
434
356
369
470
507
511
505
480
463
457
444
440
468
530
565
540
512
472
472
517
540
546
540
546
564
559
517
447
430
504
582
573
529
532
538
519
521
519
532
545
560
561
540
529
549
587
645
632
562
516
524
566
603
587
568
543
523
551
553
548
520
533
550
530
490
503
521
518
527
542
540
533
493
418
381
393
426
447
437
434
416
404
417
429
443
453
434
381
341
315
305
329
347
373
421
444
424
394
412
423
434
431
426
385
348
332
363
398
421
461
489
437
399
370
369
371
352
386
498
548
521
475
436
410
418
460
486
480
456
440
417
398
420
486
553
554
492
442
423
434
477
526
540
505
462
436
413
396
426
465
511
521
479
431
419
455
489
497
504
518
507
508
511
498
494
467
482
476
425
412
456
523
518
519
515
501
485
486
491
508
525
537
538
521
451
384
402
448
483
523
539
518
484
450
447
465
467
440
424
469
468
496
539
522
476
480
493
504
475
455
441
460
495
482
464
443
425
443
468
489
503
543
575
527
438
394
398
417
436
480
506
504
486
456
434
466
509
520
492
472
450
414
409
451
502
515
514
521
513
499
494
485
478
446
456
493
482
482
502
486
459
478
507
487
442
413
419
430
481
519
534
525
469
441
478
516
531
527
511
450
445
454
440
443
468
554
610
559
494
426
414
451
500
554
567
543
521
482
417
387
378
451
525
547
527
504
484
470
477
498
526
535
499
447
453
457
428
440
495
566
630
701
753
774
749
729
758
764
723
642
551
473
384
345
368
365
379
379
359
358
402
434
440
436
425
434
474
450
417
421
440
485
517
482
482
488
491
487
501
523
512
442
405
411
422
468
530
513
476
431
411
433
450
461
470
482
488
483
481
476
504
519
543
571
561
526
471
440
436
442
492
527
535
559
547
534
539
558
577
577
537
465
387
366
442
534
583
599
608
605
599
599
576
528
514
532
553
563
613
653
647
595
586
619
586
552
544
554
543
569
603
597
582
540
523
497
501
539
519
493
507
523
503
510
566
604
592
539
498
479
467
485
509
504
495
437
384
366
352
351
337
320
344
400
417
359
296
313
412
463
445
490
542
500
455
476
479
494
467
438
396
364
392
432
442
453
452
448
428
428
429
437
415
357
384
429
464
512
551
526
500
494
526
579
597
558
511
475
439
415
461
517
546
551
497
441
431
469
519
514
499
507
493
514
519
533
548
551
527
489
477
472
458
479
509
513
492
483
469
448
483
537
548
550
521
479
453
457
477
491
526
547
571
578
561
505
467
483
520
533
500
452
407
410
438
462
534
581
565
499
470
483
483
475
511
567
565
512
474
478
488
494
519
531
540
547
541
521
504
453
454
484
475
492
523
525
504
501
565
574
514
502
485
482
494
499
533
510
489
464
470
502
532
527
555
560
540
490
474
465
510
560
574
559
557
523
500
546
557
523
493
495
525
503
507
529
491
436
424
440
480
499
538
567
559
526
535
551
545
515
503
527
500
469
519
558
566
553
547
571
542
536
516
519
539
556
576
560
545
529
551
587
567
537
521
528
518
510
503
486
504
522
509
494
488
470
497
522
541
550
543
532
532
538
552
554
567
561
571
621
660
731
794
842
860
824
795
748
663
578
515
470
419
353
342
379
396
442
492
471
462
478
465
454
473
477
492
521
551
545
494
435
399
409
469
506
512
501
478
449
436
446
502
554
558
526
481
490
502
482
497
524
571
611
581
510
456
468
483
503
492
505
494
468
492
531
557
580
575
527
475
499
549
546
550
565
597
607
583
544
511
553
579
566
570
550
523
533
565
581
605
640
655
636
591
571
569
544
590
629
616
584
570
572
589
593
634
666
641
638
612
582
597
611
597
575
572
536
518
541
543
529
524
542
553
556
524
497
456
467
492
479
456
429
392
388
404
448
453
450
433
404
402
436
460
452
436
449
471
451
431
419
362
332
358
413
488
535
482
410
413
405
406
437
437
439
435
451
481
498
494
519
518
490
443
430
438
447
499
560
559
517
476
499
513
489
468
454
480
481
460
442
451
468
491
507
555
539
492
504
506
508
515
563
550
513
516
512
504
458
471
532
542
505
480
483
471
471
474
489
534
543
512
498
515
518
523
540
536
499
480
479
507
535
543
543
543
524
503
534
540
500
498
548
549
513
460
447
468
445
441
505
554
539
519
514
516
511
510
519
521
523
524
538
531
522
535
559
541
548
579
526
479
465
470
505
530
526
509
509
496
542
533
531
527
530
492
474
480
527
557
565
591
573
552
520
512
520
535
540
532
509
489
481
488
506
529
562
576
560
537
537
543
535
551
549
544
524
487
457
480
490
552
607
601
536
467
442
442
450
460
491
551
567
525
525
532
525
554
569
568
561
554
527
483
427
465
530
556
545
563
596
569
563
553
511
521
550
536
501
513
542
553
576
550
501
496
514
541
536
549
558
562
545
498
481
488
496
510
527
553
559
547
565
563
574
620
683
735
791
849
874
868
830
788
752
696
583
497
437
397
401
390
410
424
422
420
399
388
405
428
487
565
564
503
456
505
530
510
516
542
527
495
481
496
486
469
455
493
500
448
437
464
462
439
455
539
592
538
511
520
536
554
586
567
523
487
454
468
484
520
554
535
495
476
496
543
550
593
633
614
573
534
534
534
511
483
529
591
594
573
577
594
576
566
556
532
539
541
528
564
596
585
576
635
625
579
593
610
633
639
672
690
650
579
546
537
546
548
595
668
704
682
617
535
482
470
536
586
548
498
455
471
496
494
499
516
515
471
424
414
412
433
470
483
465
447
409
386
385
416
448
445
423
399
355
353
401
416
418
445
435
443
470
440
411
407
428
481
498
458
437
448
463
473
451
459
468
482
476
464
472
459
459
478
507
507
474
465
462
410
437
489
489
494
501
518
492
473
491
512
526
502
484
445
438
496
532
554
538
507
490
475
500
525
510
521
519
501
481
458
459
482
491
499
525
504
469
469
485
513
546
576
537
467
428
440
457
452
487
543
566
516
442
454
498
509
528
558
562
525
503
479
473
439
430
469
505
491
459
459
491
525
542
560
544
519
514
502
504
545
556
534
532
528
524
490
483
487
496
507
491
486
504
502
495
502
528
562
559
548
523
505
512
515
488
455
454
466
480
487
529
588
592
580
562
519
477
483
450
478
526
534
538
549
539
535
551
539
505
502
527
501
440
449
472
461
497
524
512
503
502
515
528
465
461
488
518
519
527
538
529
534
549
571
566
530
529
534
497
472
494
541
566
575
548
522
505
483
478
489
487
504
527
531
528
537
577
603
613
604
584
541
449
406
