1023
1023
3
0
0
0
0
0
0
0
1
0
0
0
0
1
0
0
0
0
0
1
1
0
0
1
0
1
0
0
0
0
0
0
0
0
0
0
0
0
0
0
0
0
1
1
0
1
0
0
1
1
1
0
0
0
1
1
1
1
1
0
0
0
0
1
1
1
1
0
0
0
1
0
1
1
0
1
0
0
1
0
0
0
1
0
0
1
1
0
1
1
1
1
1
0
1
1
1
1
0
1
1
1
11
15
8
4
2
1
1
1
1
1
1
14
12
19
16
21
22
44
30
15
8
4
2
6
34
29
14
7
4
19
11
10
20
47
62
44
34
49
27
14
7
34
64
68
81
102
105
121
114
96
55
28
25
34
40
45
51
65
61
37
26
14
13
24
49
50
25
14
10
5
3
6
24
39
70
108
184
275
385
490
519
508
460
393
305
202
119
63
33
18
10
6
4
2
2
1
1
1
32
71
67
94
133
161
150
108
78
79
110
135
169
193
209
208
193
183
186
200
185
179
175
175
207
235
276
301
297
264
242
248
310
325
289
222
173
192
221
221
222
239
264
283
294
312
313
334
351
339
355
378
368
362
368
364
359
356
388
412
434
437
424
420
390
365
349
345
315
316
347
348
339
336
329
328
338
347
357
351
337
312
302
317
341
360
338
288
251
271
289
283
280
269
271
255
258
289
286
282
293
307
328
318
308
304
328
332
314
314
330
351
348
366
410
406
366
341
347
357
356
359
364
378
399
396
419
421
409
397
387
397
410
426
452
469
465
451
478
477
451
455
475
479
449
412
394
394
405
414
453
490
479
459
435
423
429
449
462
458
453
461
478
491
489
495
483
477
477
487
475
466
476
464
461
475
469
465
486
509
507
521
514
516
544
529
536
561
555
561
569
566
564
544
523
542
573
608
595
531
548
563
589
607
601
587
556
539
549
572
605
634
640
635
631
613
593
599
629
622
602
633
667
664
634
628
620
629
643
667
674
679
692
714
718
681
643
657
672
657
632
625
636
631
629
615
622
644
666
660
655
648
629
620
625
646
686
740
790
855
956
1023
1023
1023
1023
1023
962
892
784
684
603
593
580
569
578
598
594
582
579
562
591
614
616
603
591
613
621
603
592
615
630
621
612
622
603
588
597
612
631
632
642
658
647
610
602
637
666
683
687
688
687
688
679
657
664
685
684
675
683
708
742
751
756
749
742
774
802
798
777
741
741
749
773
804
834
838
827
802
797
820
844
836
806
806
812
794
793
812
825
807
803
820
816
776
746
718
670
682
752
764
742
705
705
723
735
738
718
676
652
642
655
662
677
687
699
695
684
642
656
688
695
688
684
674
699
743
746
743
731
685
657
657
679
724
750
744
738
725
730
755
760
751
741
737
747
750
745
737
734
738
740
730
714
726
733
724
732
758
736
697
697
706
710
694
678
666
688
725
731
696
657
639
646
691
726
735
733
726
697
675
674
673
667
687
696
667
657
669
674
690
706
693
658
665
698
725
695
675
678
671
701
726
734
697
649
641
651
668
672
694
693
677
666
639
669
710
732
753
739
705
683
696
699
671
667
695
725
723
707
703
685
679
708
702
678
663
669
708
739
735
702
686
675
673
665
683
685
661
646
648
618
631
683
707
673
658
680
735
788
851
951
1023
1023
1023
1023
1023
988
868
718
623
560
517
483
453
471
521
560
576
557
533
549
580
610
627
643
655
644
635
648
647
627
614
630
646
637
635
641
660
650
645
651
653
648
634
649
666
688
724
732
700
662
663
655
661
669
689
714
712
721
708
698
711
709
725
752
766
790
805
812
789
776
798
808
817
828
825
819
801
794
824
868
876
858
848
866
872
865
871
869
859
837
835
833
829
845
821
759
724
740
751
730
712
718
734
744
714
680
672
689
681
662
652
671
684
688
696
684
656
611
612
620
638
636
639
634
625
642
679
677
635
608
603
610
616
637
667
659
625
634
656
653
641
680
668
630
602
586
572
601
613
617
645
634
608
588
604
601
582
597
614
623
642
645
624
618
608
596
602
609
611
619
625
624
640
637
614
590
584
581
574
590
601
610
606
603
576
575
577
612
640
626
611
600
575
563
596
646
643
623
638
653
627
586
568
597
641
655
624
579
563
559
596
637
641
606
584
609
625
633
631
632
621
606
615
618
602
586
596
608
590
621
649
639
630
616
595
565
546
548
550
561
601
605
622
648
670
647
598
577
616
673
741
841
956
1022
1023
1018
932
862
793
690
588
505
449
411
374
365
360
400
438
464
504
543
539
531
514
503
516
505
528
555
575
556
534
546
578
589
585
548
520
520
528
529
530
558
558
569
594
606
584
570
566
577
582
555
549
565
603
631
654
629
608
614
626
637
650
634
636
655
636
607
608
627
630
633
657
664
645
634
650
681
689
710
714
702
685
666
682
686
659
638
664
681
678
687
684
643
591
586
595
606
590
583
573
556
519
501
517
553
604
605
576
539
524
528
527
544
528
506
520
536
567
593
595
544
516
520
551
564
541
515
531
537
547
563
575
556
553
558
551
552
547
550
546
541
550
563
568
556
558
583
596
570
542
537
557
565
589
607
605
572
541
516
535
530
558
573
559
559
583
609
618
621
610
613
615
623
610
578
560
559
542
552
562
559
561
579
589
591
564
534
561
620
648
664
668
663
618
595
586
597
605
600
603
591
566
559
577
576
579
571
576
571
586
602
603
616
655
731
833
932
1010
1023
1023
971
899
795
667
564
483
440
440
438
452
464
459
460
467
483
475
506
539
528
519
518
534
568
556
523
500
504
525
531
541
554
559
552
566
600
623
615
581
576
575
557
540
540
552
561
584
582
581
574
577
600
630
635
592
576
548
524
551
577
604
637
650
646
607
597
635
651
682
687
649
616
620
657
678
690
707
673
631
619
627
609
587
599
632
636
613
614
621
607
592
580
575
577
568
560
571
583
576
547
519
478
462
478
456
438
432
445
480
486
504
532
514
494
477
481
489
518
522
507
493
463
452
467
477
504
512
513
519
506
496
480
455
445
464
488
514
522
524
519
524
541
550
515
511
521
497
488
496
498
521
552
519
478
484
490
487
502
485
488
492
494
507
522
500
497
485
475
478
466
504
531
540
515
490
473
471
502
503
497
488
481
476
480
476
490
476
444
457
498
508
519
529
507
495
487
481
491
495
490
522
549
559
576
592
573
547
541
528
518
511
502
491
492
493
498
495
488
506
530
528
491
483
484
478
471
460
471
484
471
483
510
593
644
711
801
902
964
960
918
844
749
602
476
406
363
335
337
317
320
341
335
352
401
430
428
393
385
396
399
378
396
422
423
401
369
369
404
422
448
461
454
451
454
471
459
444
449
456
448
450
464
460
460
480
474
454
451
463
485
484
492
485
475
479
475
478
469
448
468
512
548
544
522
504
503
519
558
590
594
586
568
550
547
561
576
599
621
617
578
558
557
553
542
531
554
583
581
583
574
545
522
493
481
473
463
449
464
473
460
443
431
429
431
408
421
446
453
417
399
399
388
388
393
406
431
431
389
365
365
362
362
367
404
448
468
471
438
413
424
447
444
454
457
433
400
397
411
424
430
432
445
431
420
435
468
498
489
432
392
426
455
482
496
466
445
460
451
455
465
435
391
433
481
504
518
505
470
442
439
426
439
434
446
474
493
503
470
430
416
429
483
506
480
478
490
496
504
480
468
458
461
470
492
498
509
522
541
545
546
507
473
462
451
454
463
464
481
487
485
488
478
465
492
508
478
466
475
502
503
513
561
615
666
738
815
868
861
854
867
844
732
597
499
429
386
337
306
317
351
384
415
423
444
428
418
428
408
424
454
470
450
428
423
434
440
447
465
475
487
495
489
458
442
459
494
501
496
488
469
455
464
499
524
548
539
518
513
513
507
493
517
529
551
540
519
492
499
504
524
573
613
624
593
562
543
538
564
581
597
603
587
593
586
569
570
592
601
640
655
626
587
561
541
541
545
535
522
497
462
471
480
492
517
521
515
490
466
441
443
460
469
454
446
470
456
419
423
459
468
483
501
508
465
404
389
394
420
419
432
449
466
499
501
474
473
451
414
391
416
431
441
462
499
528
544
534
512
517
513
510
489
473
461
478
487
496
491
505
539
531
519
496
483
490
471
476
484
477
478
518
541
515
501
514
524
502
467
438
462
488
509
532
557
569
564
543
537
533
510
484
497
506
506
487
461
464
480
482
485
489
510
533
559
564
553
539
535
544
555
543
523
526
534
535
527
508
486
468
484
488
474
488
491
486
502
526
533
545
593
631
685
758
840
912
937
914
866
783
694
575
459
382
342
334
350
348
330
344
364
380
392
420
436
440
445
454
459
483
493
471
450
454
473
482
467
467
477
487
481
475
485
525
543
514
487
479
476
493
488
487
506
528
554
590
599
591
588
569
520
493
477
478
508
537
559
575
559
554
574
602
599
595
601
600
623
654
658
662
677
698
677
624
611
617
633
617
622
612
599
585
575
591
589
601
609
621
614
584
560
538
527
503
503
497
467
442
468
524
548
528
490
480
485
490
476
463
465
471
472
492
522
518
504
492
486
474
458
460
452
461
457
449
500
542
546
518
491
493
506
530
551
552
549
575
587
585
606
595
547
487
488
521
489
482
491
516
534
528
535
544
540
533
533
553
564
542
548
557
543
520
510
527
508
496
514
526
530
512
498
520
548
553
555
544
529
511
510
522
534
539
528
512
506
537
572
558
534
534
532
554
561
553
590
576
553
563
565
543
528
521
518
533
514
504
508
504
503
497
500
529
545
538
522
530
528
514
540
586
654
751
836
910
960
980
938
850
737
606
482
381
343
322
304
336
358
361
374
409
416
442
461
466
488
499
490
480
498
506
492
471
465
474
463
472
509
520
483
446
434
441
442
448
474
511
533
536
533
538
542
536
532
525
539
537
553
573
569
524
481
495
536
539
524
539
562
564
577
580
598
603
585
573
581
597
591
618
651
669
651
637
622
577
553
575
592
591
596
601
585
573
573
567
562
550
522
507
504
521
528
523
513
483
450
467
487
490
464
437
425
420
427
441
439
440
411
404
433
476
484
479
468
446
443
401
383
400
426
453
465
457
451
454
455
453
454
466
448
422
428
442
476
500
484
489
476
457
463
487
512
502
488
473
509
502
475
466
456
458
479
505
515
496
489
472
454
469
498
494
489
499
493
496
514
515
508
515
494
480
491
477
467
473
460
469
500
506
494
484
479
491
491
493
485
467
439
434
461
477
494
497
496
487
482
489
501
507
479
460
461
462
460
461
498
502
502
497
494
490
464
451
448
461
469
463
482
499
515
516
507
487
483
472
467
505
527
515
510
527
540
523
496
480
448
412
403
417
436
452
470
493
499
518
507
487
474
461
477
487
469
479
508
519
494
478
463
481
505
492
465
445
448
452
493
494
483
479
477
452
452
475
454
468
491
507
485
480
490
480
462
450
455
485
505
503
507
494
453
460
489
499
507
516
514
508
460
433
447
464
472
485
491
491
537
546
520
477
456
454
459
470
454
444
472
494
499
510
517
496
496
499
503
505
512
510
505
489
484
490
494
480
501
525
507
501
492
493
535
566
594
597
555
495
477
480
464
452
448
449
431
425
439
448
467
482
475
472
480
506
557
637
730
838
912
951
960
933
844
716
606
490
405
346
303
301
300
302
315
339
383
403
378
387
424
430
427
429
408
406
448
459
469
484
485
484
483
465
432
423
431
449
466
457
445
469
533
533
518
497
495
518
524
528
530
558
560
547
518
495
484
495
515
523
514
517
525
538
546
556
583
584
569
578
599
621
635
620
599
618
614
596
589
593
603
627
647
644
627
608
591
569
573
596
618
614
617
605
577
559
557
544
533
539
528
509
494
495
494
488
481
502
532
542
521
480
448
419
413
413
399
406
425
447
445
438
434
448
458
437
426
452
460
454
464
479
480
462
450
458
493
525
520
487
457
451
436
423
427
435
429
421
443
511
503
510
541
547
526
488
463
477
504
509
501
481
484
523
537
500
463
482
492
458
466
480
493
503
483
467
462
487
530
554
563
539
499
474
466
475
466
462
463
487
516
529
525
507
492
476
471
504
552
568
537
500
476
481
498
484
487
481
492
502
484
498
516
515
482
477
478
488
492
505
513
501
484
481
482
518
523
525
525
509
514
536
537
563
545
494
463
453
489
518
530
541
536
507
516
531
533
520
500
493
499
486
506
520
505
501
518
523
524
521
531
525
526
531
552
567
561
541
525
526
509
492
484
496
529
530
511
505
503
502
492
492
487
482
484
477
510
551
581
579
576
580
562
534
521
502
482
486
488
487
541
609
622
611
586
541
537
524
504
527
540
544
521
514
529
559
586
575
538
532
528
529
518
483
462
461
468
494
527
550
526
496
498
524
554
595
669
751
810
872
948
997
980
888
787
665
551
438
375
338
317
303
305
316
341
368
404
413
435
445
452
458
443
433
432
447
474
489
462
436
455
462
465
481
481
484
486
475
468
475
497
490
472
456
449
485
543
543
516
514
510
504
496
501
530
563
567
553
556
556
541
532
521
503
516
532
527
536
554
570
605
630
626
588
570
595
608
618
609
614
620
600
570
554
556
553
563
600
626
617
587
556
547
555
560
531
504
523
522
526
520
486
477
472
476
472
461
470
472
447
427
421
412
426
446
453
475
471
449
421
433
436
423
431
446
439
423
419
445
466
469
472
444
414
420
456
472
461
457
462
468
479
466
463
487
528
559
547
513
481
453
448
480
466
429
471
503
519
556
575
575
560
554
542
517
508
498
481
466
473
493
484
488
486
495
498
507
492
497
520
577
599
572
533
493
466
475
501
509
522
539
512
488
491
510
531
543
534
520
494
478
473
489
493
496
505
511
513
499
488
509
517
504
514
522
530
533
513
529
551
533
510
492
493
495
498
512
565
592
569
516
478
484
483
479
466
462
500
518
504
491
487
484
514
555
551
546
529
504
524
556
563
562
539
527
536
535
528
529
520
494
476
471
487
497
499
513
535
545
546
535
537
516
501
489
507
535
534
536
539
518
504
511
533
532
543
538
547
569
568
549
544
528
516
524
540
558
564
545
537
519
519
519
500
482
487
528
526
514
523
520
528
521
511
512
555
588
630
712
809
886
944
945
915
845
749
614
489
401
335
295
281
296
328
366
386
390
372
397
439
457
460
436
400
416
458
452
454
448
476
483
454
442
451
472
466
482
488
489
500
500
493
482
489
491
463
444
450
470
504
528
533
542
545
553
555
527
494
503
517
529
547
563
562
563
571
567
558
556
552
576
594
591
598
578
554
567
596
618
614
609
615
627
633
610
591
579
568
562
571
597
598
562
545
529
514
515
507
490
475
483
501
481
472
472
489
478
432
418
417
413
400
397
425
459
455
443
442
418
418
409
402
411
417
410
411
426
418
419
418
420
442
447
436
419
416
440
432
425
434
430
421
458
492
481
454
434
445
454
449
464
484
479
489
478
451
444
450
480
499
510
514
491
475
472
475
484
489
480
522
526
471
452
444
435
457
479
461
456
474
489
494
478
475
508
539
540
524
513
501
485
474
446
449
480
486
486
505
492
469
484
471
454
441
447
494
522
511
488
463
453
474
496
486
454
460
453
444
461
500
536
554
543
501
466
460
468
453
458
470
474
469
460
455
479
504
523
517
499
468
455
473
485
454
476
514
533
531
503
478
458
453
502
536
519
507
486
466
453
454
482
509
521
520
520
518
534
539
521
544
539
508
496
478
460
456
480
499
503
499
512
543
531
514
496
508
518
516
528
535
500
538
584
594
582
559
550
545
521
489
463
464
469
451
455
476
499
514
497
516
543
558
531
501
496
504
495
522
568
639
714
813
910
954
979
961
866
792
678
550
432
354
318
310
305
287
293
333
366
376
388
413
436
427
452
482
479
457
442
433
419
424
452
462
466
481
491
499
524
526
476
426
430
472
522
555
530
490
478
481
495
511
508
484
466
467
481
504
525
545
554
546
549
571
604
592
563
538
514
515
540
566
591
582
570
575
583
586
602
601
593
614
633
650
619
571
572
610
622
622
614
607
603
606
584
541
519
519
543
557
561
543
535
523
498
457
448
442
440
451
463
468
474
477
484
488
473
457
464
468
458
431
447
445
441
454
477
491
489
470
483
441
416
462
491
496
496
501
509
516
522
509
514
525
512
516
491
490
517
532
516
520
521
508
487
494
554
580
576
593
582
518
461
434
457
499
513
519
521
517
505
509
508
501
507
517
487
475
506
535
544
545
521
497
478
489
518
511
489
478
485
491
490
498
512
514
513
514
477
467
488
498
505
493
501
517
521
532
525
499
472
465
493
510
507
497
522
537
547
522
494
507
515
518
519
512
528
537
537
515
524
543
544
548
554
535
490
465
472
484
503
517
500
483
513
528
512
512
501
497
498
496
491
490
497
516
524
547
557
534
531
540
517
520
517
501
507
516
525
542
520
505
517
503
510
534
533
535
546
558
565
566
550
543
535
522
540
574
583
556
534
519
478
445
471
496
506
524
533
535
528
525
525
525
501
496
500
471
473
510
560
635
716
815
901
953
966
948
893
828
711
557
397
289
257
268
281
317
359
373
383
386
397
403
403
415
427
427
418
413
410
400
398
412
434
448
465
480
467
442
408
425
472
449
442
453
480
494
503
515
495
490
463
461
462
464
491
512
507
524
529
521
501
503
517
540
551
542
567
574
567
582
581
595
570
538
547
577
604
613
605
593
608
626
625
616
605
594
581
568
572
584
594
596
584
575
575
581
559
542
533
499
488
500
514
530
521
505
481
465
454
414
393
391
399
420
428
410
397
416
430
437
448
437
398
379
377
380
417
441
472
471
457
454
443
414
402
398
409
451
479
488
456
438
438
447
468
485
484
486
448
438
474
474
451
449
445
448
464
465
475
516
533
522
527
512
483
475
500
537
547
557
564
578
578
557
567
574
575
594
617
620
618
624
623
635
597
568
575
597
597
601
603
584
575
579
598
599
597
587
575
565
560
570
569
559
558
562
575
559
551
563
571
561
543
519
519
489
471
514
565
565
565
571
558
540
520
492
500
531
547
558
548
530
502
509
506
496
508
481
458
487
513
514
502
492
485
487
499
511
532
531
524
535
550
565
560
539
529
536
535
543
530
511
510
522
509
473
466
506
515
529
537
516
485
482
500
510
492
484
490
495
479
476
507
588
658
726
825
913
948
960
922
818
725
625
509
373
282
261
259
288
331
354
379
403
388
373
376
396
416
406
394
388
433
461
460
459
445
444
450
443
427
416
411
446
487
507
499
473
451
442
446
470
505
511
521
506
465
463
480
493
493
482
514
541
528
538
557
570
561
542
523
531
519
496
516
553
567
554
556
583
589
607
622
628
610
585
580
579
576
585
587
583
580
600
623
640
633
609
585
561
529
502
479
455
463
499
517
490
465
472
469
461
434
410
424
448
456
449
434
430
458
456
461
441
382
352
353
381
408
429
433
433
432
441
426
416
444
442
428
401
408
415
425
456
477
465
471
482
451
407
412
429
453
473
468
473
460
455
451
440
428
437
462
470
461
461
466
453
478
526
555
543
516
478
467
454
464
440
402
415
438
464
494
491
481
490
513
498
489
495
501
482
476
476
471
479
475
461
466
465
469
481
489
461
439
448
460
455
433
420
441
460
473
494
499
519
546
531
513
505
503
527
524
496
478
474
471
492
523
524
479
472
493
498
482
460
461
457
479
478
490
490
510
559
598
665
741
832
905
947
953
889
773
658
561
457
374
317
298
311
335
356
378
377
362
359
381
449
456
407
403
427
449
475
496
493
467
434
435
471
493
494
475
468
448
441
440
463
487
502
509
511
515
512
508
520
530
540
540
515
508
513
524
533
526
531
547
531
517
531
564
584
588
562
539
549
550
563
605
616
608
613
617
613
630
650
621
590
607
623
624
624
625
636
625
623
604
571
539
528
531
539
527
507
518
524
482
461
469
460
451
448
456
484
477
438
398
409
443
443
428
415
392
404
435
462
475
482
465
406
387
412
429
452
461
471
463
461
470
480
479
458
464
490
483
465
476
477
485
486
458
446
453
458
476
514
517
518
514
513
516
513
530
543
548
553
553
557
555
533
533
516
501
501
517
529
518
540
532
498
542
584
567
532
532
535
524
531
535
528
525
521
515
548
538
505
498
510
541
558
555
546
552
550
541
546
556
533
509
525
548
567
574
567
538
521
527
533
516
512
527
513
513
528
535
545
548
530
537
550
549
536
540
525
509
541
570
575
558
565
589
585
563
546
561
587
613
603
563
539
513
525
533
522
534
552
540
519
500
500
508
508
504
520
550
555
578
614
669
720
799
900
957
978
965
892
814
751
653
560
471
430
392
377
372
353
345
373
429
473
486
505
492
470
481
487
462
433
424
439
480
490
492
512
536
537
503
519
519
483
491
534
549
533
536
535
530
543
531
523
540
572
574
572
543
506
504
532
540
554
574
590
597
604
607
611
623
631
613
603
612
605
591
598
616
632
647
675
666
671
671
648
673
684
645
617
622
623
644
649
673
670
618
584
586
596
584
582
575
572
560
561
541
532
547
549
522
507
494
490
464
426
430
444
465
490
496
502
495
504
514
483
480
500
493
495
494
490
483
464
473
496
513
538
516
503
491
495
498
504
518
526
540
546
535
506
489
488
526
526
506
495
504
496
472
494
507
542
565
568
558
529
528
547
568
582
562
529
531
564
566
547
547
543
538
539
517
528
534
535
521
537
580
579
553
526
513
499
503
508
503
487
503
553
562
559
540
530
514
512
509
516
550
577
574
571
535
533
534
550
569
558
565
576
562
556
553
566
566
559
541
536
545
541
555
558
543
533
515
537
547
549
558
547
555
583
581
567
553
515
520
546
556
554
522
499
543
629
722
806
890
960
989
988
922
822
756
631
525
457
402
385
397
430
452
434
433
443
420
406
412
445
446
421
437
475
468
445
434
434
464
489
487
497
487
489
467
439
433
461
487
499
499
505
508
502
521
513
507
524
501
497
504
502
532
556
557
539
524
550
568
597
592
568
557
547
532
532
557
584
594
574
560
563
576
597
606
614
606
602
599
630
632
591
560
575
591
599
599
592
599
591
555
546
533
529
537
516
502
491
458
434
433
442
433
420
423
430
447
446
433
415
427
452
443
423
415
411
398
410
431
424
417
403
422
476
494
493
462
390
344
366
403
414
444
456
471
463
466
437
429
434
419
390
398
450
485
502
507
514
499
447
448
476
470
444
440
442
441
439
444
452
456
468
461
469
501
525
529
513
487
464
447
441
455
470
460
460
461
465
453
472
458
434
418
418
432
435
418
402
414
456
459
459
460
476
504
524
523
472
427
425
440
445
459
480
480
493
474
440
411
396
430
452
461
476
467
465
472
467
447
442
442
447
444
441
449
449
448
456
453
469
476
461
449
448
438
439
460
444
446
437
435
455
457
451
445
451
441
429
441
448
438
449
460
454
460
484
470
450
442
453
457
463
474
479
433
406
415
440
445
427
421
420
425
435
448
448
431
428
453
467
480
461
454
457
449
451
435
426
450
467
471
462
460
442
432
434
409
386
408
451
471
476
482
482
468
452
430
445
492
489
436
420
426
444
438
424
436
455
448
459
462
455
472
464
450
436
450
454
425
415
463
509
521
494
473
477
490
471
458
445
449
476
494
495
501
478
471
491
457
416
400
425
432
429
431
452
433
406
396
408
430
427
452
485
479
474
444
449
516
610
690
783
853
894
905
850
738
655
541
431
348
282
247
242
240
259
305
331
338
339
341
373
385
400
407
416
407
411
424
403
410
395
386
394
397
405
414
424
412
414
434
441
425
408
400
442
481
466
445
441
455
463
442
432
448
468
487
504
495
468
476
472
479
514
545
575
559
501
493
481
476
503
509
527
547
560
537
546
570
557
551
581
592
590
594
588
585
594
591
560
530
550
548
513
519
538
541
542
532
507
499
498
493
501
484
455
449
441
413
401
405
398
410
419
425
429
424
381
372
385
379
396
407
408
407
416
425
417
392
366
369
386
408
420
417
407
396
400
417
435
441
435
454
452
432
412
422
453
443
418
424
424
435
445
445
448
456
446
445
459
467
473
466
447
457
464
454
470
495
488
457
478
504
489
483
473
449
444
446
451
462
491
512
514
513
510
503
481
436
420
421
439
468
482
478
484
485
482
464
460
459
471
434
430
453
478
510
523
532
500
484
469
456
473
498
488
493
470
466
483
507
531
533
508
474
464
455
463
482
458
427
431
458
467
477
501
495
490
502
484
476
491
502
499
501
521
537
524
503
499
508
544
553
515
485
477
473
487
499
496
453
441
474
481
486
497
527
534
535
543
540
508
494
499
501
507
507
503
486
482
476
483
499
495
496
511
493
490
482
467
463
461
471
498
514
524
530
530
530
529
543
546
535
545
523
475
482
512
538
549
577
630
627
570
519
494
501
517
516
497
485
485
494
493
499
488
488
493
521
557
561
545
547
532
506
504
549
616
679
745
842
922
932
927
873
791
685
561
472
390
352
342
316
320
343
388
400
400
418
415
423
450
470
486
481
478
484
491
473
458
473
489
489
495
496
482
495
518
504
507
540
575
562
541
516
508
498
491
492
513
525
544
583
577
537
525
520
534
552
565
580
560
547
537
567
573
567
586
582
575
582
583
610
616
606
603
591
605
625
644
652
650
636
627
602
599
638
664
669
660
676
659
639
600
582
561
552
562
567
532
499
488
486
500
497
484
459
471
483
467
481
494
501
505
481
443
425
442
448
443
428
399
408
429
472
480
450
433
436
456
497
491
460
444
449
447
450
467
481
478
481
494
503
529
516
487
458
432
451
486
484
499
520
532
548
542
524
507
496
500
505
542
540
509
493
509
517
527
538
564
579
558
541
534
508
456
454
511
542
509
493
506
519
537
533
528
523
523
532
526
537
522
500
498
510
507
500
498
518
545
550
550
543
515
502
481
454
475
516
529
524
528
532
532
534
527
522
518
509
513
522
518
540
550
555
529
499
510
562
575
550
533
497
489
507
529
522
523
546
553
551
503
478
487
533
571
556
536
503
474
493
536
552
567
556
543
525
514
525
555
589
572
523
502
511
509
512
509
509
521
519
511
517
518
518
528
529
546
577
560
535
546
564
535
503
508
514
512
531
536
522
516
541
552
539
523
534
544
528
521
535
542
535
524
523
531
551
548
546
548
538
520
518
526
533
559
571
561
547
546
540
532
549
561
555
552
571
593
587
571
546
538
558
570
551
533
552
529
519
530
538
506
482
516
526
518
510
502
520
576
589
608
668
744
818
889
934
950
958
925
838
713
549
469
445
399
344
339
363
406
419
415
429
454
467
473
481
467
456
448
459
476
507
518
491
487
488
498
462
433
461
501
504
507
518
500
465
473
496
527
566
556
504
487
492
482
509
532
528
542
569
572
550
543
539
543
552
544
560
570
565
589
627
618
580
582
590
606
624
629
644
667
654
645
639
616
606
617
622
618
640
643
635
616
597
587
600
617
616
589
549
544
565
558
545
544
546
541
519
499
490
504
505
502
505
483
468
493
479
462
466
487
479
446
442
457
456
457
471
471
444
470
481
484
479
462
435
431
444
454
459
465
481
498
488
468
456
493
515
493
480
495
486
500
519
511
507
518
526
506
500
487
486
506
527
526
493
480
473
507
557
550
512
501
482
474
479
486
480
482
500
517
521
509
504
504
489
466
485
496
474
486
523
538
538
534
526
522
489
458
464
471
458
461
484
512
529
520
510
502
485
470
476
465
479
493
479
482
495
506
506
523
526
520
494
483
479
480
490
502
506
497
493
478
453
456
461
468
468
486
511
523
523
519
530
516
507
482
478
505
516
504
508
496
467
461
481
524
545
524
488
455
467
490
501
502
525
530
531
520
525
552
549
511
501
521
526
511
500
478
485
512
529
504
477
484
517
532
537
518
495
491
517
528
521
512
512
521
531
538
524
501
501
500
502
513
525
522
519
527
555
558
532
544
554
537
517
530
531
548
561
577
583
581
593
602
595
556
529
530
550
564
559
560
550
540
525
516
498
518
535
526
516
508
519
526
536
540
556
547
549
561
577
618
673
775
880
947
967
955
908
819
729
620
510
439
401
365
330
318
302
321
355
390
410
424
432
466
488
483
494
476
456
473
496
493
478
450
453
462
477
468
465
484
498
490
483
487
495
490
464
474
493
510
514
505
508
548
541
525
517
523
515
508
516
540
553
557
542
519
506
541
578
563
534
519
543
581
620
615
592
583
599
612
621
609
610
621
621
619
623
632
626
611
610
617
601
586
560
563
583
558
518
500
498
505
518
505
505
483
447
477
494
461
452
444
429
423
431
441
429
433
449
439
420
429
430
423
425
413
432
459
475
471
452
428
411
407
421
431
437
427
428
437
441
450
449
463
465
478
490
491
490
478
464
462
474
494
500
504
492
481
489
496
534
537
479
472
489
491
495
493
479
484
480
495
496
507
519
522
519
529
534
495
449
485
513
526
526
537
562
546
513
498
487
481
475
479
472
473
477
475
435
438
473
513
543
546
539
531
514
513
523
530
513
502
505
500
480
496
516
494
494
504
502
509
504
493
476
476
486
498
502
498
493
500
531
525
498
483
489
476
485
498
506
502
487
514
543
538
531
525
510
524
515
509
512
497
490
480
451
476
507
516
504
502
499
506
525
539
526
522
519
521
509
490
475
490
498
495
509
529
514
510
512
511
523
509
515
513
483
475
460
465
503
514
502
514
550
539
511
505
475
473
484
515
528
543
560
554
533
518
513
531
547
565
554
515
523
548
542
545
553
573
572
567
535
500
495
472
475
481
466
455
462
458
460
475
498
536
587
591
585
592
642
697
749
812
876
921
935
908
817
732
637
526
436
351
301
291
298
322
335
359
387
405
432
461
464
460
460
464
462
459
459
433
439
465
469
460
445
450
476
512
527
519
503
505
505
487
488
496
489
501
519
511
510
529
524
507
492
466
471
492
514
528
529
512
530
585
602
586
567
572
581
575
550
558
560
548
552
567
583
610
613
610
640
655
648
651
658
638
599
584
581
576
589
609
606
589
588
598
587
562
543
536
537
530
534
506
473
469
449
444
462
482
473
451
447
457
454
455
461
469
464
459
446
433
425
436
433
419
410
416
457
478
446
420
432
438
448
438
446
457
447
448
469
480
454
434
443
470
500
524
505
473
471
498
502
497
492
497
470
470
473
487
496
483
464
470
502
519
502
494
495
482
466
463
487
502
484
510
545
550
525
522
519
478
464
475
503
532
554
521
473
469
498
490
484
499
500
499
495
478
483
496
512
509
509
522
502
492
502
475
472
495
488
479
486
502
509
494
482
503
522
510
504
496
485
473
477
506
523
506
496
502
495
481
477
477
496
517
519
516
514
487
484
474
487
533
556
556
535
506
509
507
504
514
507
462
444
454
485
512
543
546
547
538
535
522
504
507
507
497
475
467
478
483
504
518
526
529
500
482
489
495
512
534
535
518
511
522
542
520
518
541
532
521
523
527
522
534
517
513
512
502
509
526
535
540
542
542
516
503
531
544
552
545
522
535
577
572
552
562
566
560
557
562
552
537
535
521
500
502
503
479
493
523
518
520
518
513
510
520
529
557
603
651
688
746
832
906
967
998
968
868
730
591
469
395
350
317
305
312
336
375
420
448
463
458
443
428
417
408
414
430
436
451
485
492
509
504
468
476
479
463
444
451
443
465
493
498
501
479
477
493
496
487
491
510
514
518
521
523
514
524
521
496
467
473
490
503
514
525
525
551
565
546
537
573
583
594
613
599
569
551
540
550
571
589
600
589
572
621
633
617
594
595
617
614
604
590
565
558
591
569
520
521
551
551
529
521
500
477
477
473
469
496
496
463
443
443
419
405
389
386
418
432
438
448
449
453
455
427
423
411
389
409
439
458
470
461
471
473
444
415
405
393
391
418
423
423
448
480
488
494
482
498
456
440
479
517
519
505
463
445
477
497
500
490
497
504
496
502
505
507
510
512
504
491
493
487
495
489
482
502
518
558
544
500
494
497
480
467
467
486
497
484
475
492
511
521
500
491
498
506
504
510
519
526
494
466
512
565
568
529
491
474
480
475
478
486
474
474
502
522
509
479
487
518
533
534
517
490
475
473
476
479
473
501
512
529
535
517
500
532
558
541
516
512
493
473
482
485
474
484
521
547
566
565
536
506
514
545
532
505
511
510
489
500
509
506
496
506
523
534
526
495
474
481
483
491
507
502
513
545
563
549
538
539
517
520
510
463
454
481
523
544
556
553
533
509
511
524
529
517
515
534
548
549
558
564
566
555
517
505
537
544
558
581
590
583
574
555
538
527
500
483
487
493
492
481
490
506
502
502
519
527
529
543
585
610
652
739
824
889
945
955
926
888
802
658
526
417
370
360
339
339
326
345
393
424
418
418
431
436
447
446
459
445
430
422
435
466
480
496
495
491
492
487
494
521
536
532
535
505
484
490
480
496
531
534
518
503
510
501
504
509
514
524
520
524
546
549
545
546
543
541
566
590
589
589
590
582
581
565
575
591
584
579
582
607
614
598
604
589
586
624
640
659
657
656
658
630
604
572
565
557
569
590
573
554
529
519
488
478
479
467
477
465
466
462
456
441
453
479
450
420
390
383
417
456
456
431
404
389
413
444
450
440
442
446
456
446
413
398
400
418
432
445
483
501
474
409
391
421
460
488
485
461
456
469
466
482
487
492
500
510
501
492
516
516
508
515
516
505
489
500
534
529
510
513
506
495
479
480
480
463
469
501
532
540
528
529
544
538
526
545
531
516
520
501
480
452
447
474
515
519
502
505
505
477
478
493
508
508
487
469
493
507
495
477
473
497
505
503
508
518
508
492
510
504
502
514
512
486
472
476
480
485
477
454
479
501
525
539
533
526
517
512
525
525
509
511
501
474
453
470
498
526
530
541
526
502
487
495
497
504
514
506
489
460
448
476
523
533
527
518
495
500
505
521
514
495
487
489
498
517
506
504
515
507
515
511
492
484
490
509
517
500
487
530
573
586
553
540
551
542
513
499
519
534
528
512
501
492
496
484
477
495
486
469
468
493
489
472
463
490
550
613
643
706
828
921
972
978
916
817
717
617
512
420
371
321
271
271
308
340
346
349
364
387
401
385
397
424
427
440
469
488
486
477
462
421
416
441
459
477
509
518
506
481
456
448
453
474
508
532
527
510
509
513
512
526
512
499
488
495
498
496
527
549
536
516
520
536
530
522
540
543
541
552
580
583
586
605
621
609
594
590
588
580
597
602
592
595
604
616
615
624
597
591
603
594
570
531
546
577
581
564
552
540
536
524
496
490
510
529
510
449
407
415
405
399
396
392
400
413
395
394
441
459
447
435
441
425
413
408
417
439
457
445
430
432
438
446
440
430
411
410
428
438
408
410
440
459
464
472
481
479
472
483
474
470
501
528
520
507
487
458
468
479
484
487
502
503
477
479
485
486
506
546
544
517
494
485
500
509
506
506
501
496
506
494
471
473
486
484
481
478
468
479
509
513
493
486
498
494
509
518
512
517
528
534
522
503
489
486
487
487
479
472
493
510
498
480
480
497
525
524
499
486
504
520
515
519
527
510
486
509
544
526
501
490
480
467
463
478
484
500
508
494
497
493
490
502
531
520
500
500
491
502
525
523
527
522
505
532
549
555
553
515
528
548
549
554
554
537
537
544
556
562
543
545
531
504
487
484
471
472
498
482
460
476
500
511
515
515
524
573
633
693
745
829
915
933
905
884
845
761
630
517
418
355
349
348
332
337
360
395
410
410
414
430
452
461
491
482
459
466
475
484
471
452
430
416
417
451
469
475
484
470
456
477
489
478
459
460
474
474
474
494
525
561
560
525
524
514
524
544
557
516
492
496
524
549
544
549
567
558
554
545
543
543
570
603
597
599
591
586
586
593
603
597
603
634
628
611
595
590
612
627
616
602
594
588
600
582
558
536
509
516
505
487
497
506
472
443
432
434
451
475
466
457
455
440
404
397
408
410
411
427
438
467
494
499
471
433
399
386
401
411
420
412
404
424
457
469
484
475
457
435
424
440
444
449
441
440
448
490
509
496
463
442
455
484
496
505
489
490
504
503
491
485
486
486
478
464
458
466
493
495
488
501
515
524
543
545
505
464
473
468
486
498
515
529
521
497
473
466
472
484
507
515
526
528
523
495
493
477
482
478
476
473
478
509
512
505
492
471
485
522
536
541
519
497
537
541
533
542
572
556
553
540
524
496
487
490
496
500
492
494
485
470
474
505
511
508
495
486
483
500
512
549
594
626
682
777
885
955
982
978
913
803
708
605
502
414
359
350
338
344
358
377
408
408
405
424
413
407
420
416
419
433
459
472
471
476
489
491
487
496
490
476
497
503
505
478
476
474
463
453
459
474
475
502
525
527
504
504
521
528
516
522
521
506
512
541
540
527
531
550
557
546
535
546
563
583
599
624
628
615
609
607
598
598
607
623
622
637
625
615
632
622
617
598
552
552
552
543
545
571
564
552
565
562
555
540
518
499
482
481
465
447
439
414
367
347
399
447
458
466
472
461
438
408
396
415
440
439
441
436
448
463
473
453
429
418
408
421
460
464
453
470
513
502
483
465
460
462
463
449
473
495
471
469
455
451
468
493
511
517
500
482
456
462
487
494
500
489
484
500
536
554
546
511
477
476
485
494
498
496
497
502
516
501
513
529
508
492
490
490
504
509
504
505
489
475
486
494
523
546
532
510
494
507
506
504
502
496
479
493
510
508
505
516
536
539
528
507
501
508
522
509
499
499
501
490
468
462
456
460
487
538
575
572
564
557
547
536
521
535
533
527
536
557
553
542
540
563
570
556
537
524
497
489
482
490
496
526
542
533
527
518
516
520
547
561
545
493
435
439
496
592
690
792
894
978
1019
995
948
870
765
638
524
444
374
358
374
375
345
349
389
409
423
430
430
419
445
473
467
441
445
487
514
494
457
434
424
397
430
474
482
493
479
475
482
478
478
467
471
514
529
511
522
523
509
491
483
492
502
498
494
500
537
548
566
581
566
558
540
536
547
565
563
574
590
590
584
600
627
648
640
599
574
596
604
608
602
583
592
606
618
614
605
613
614
636
635
586
563
567
579
560
519
520
545
533
494
471
453
470
471
459
450
452
468
465
459
431
411
423
461
480
475
446
426
436
428
419
413
416
430
442
463
445
419
399
423
463
484
480
469
474
444
426
453
473
495
515
515
498
487
477
456
449
464
467
464
498
519
490
480
482
487
492
479
457
470
485
470
482
496
515
538
546
516
507
518
523
514
509
498
493
483
494
470
451
446
463
492
514
515
511
491
477
475
494
520
511
498
487
475
473
491
503
509
500
528
559
544
491
469
492
513
528
538
527
495
490
480
487
524
519
501
506
518
522
502
496
514
536
565
542
518
522
522
534
551
554
537
515
504
465
456
513
528
510
499
476
491
529
529
496
471
468
491
514
532
548
564
580
620
687
745
811
883
899
910
888
843
731
612
516
425
344
320
312
313
301
293
334
388
404
405
431
420
392
407
426
421
442
461
448
440
442
443
445
467
489
506
495
465
455
445
441
453
458
454
461
471
490
491
467
484
521
530
520
503
494
461
456
484
505
515
498
499
514
536
558
593
616
578
542
517
521
539
544
542
569
588
574
563
572
592
576
588
605
591
592
591
582
558
556
550
570
557
542
554
567
554
528
521
527
495
471
474
468
454
449
442
452
464
457
425
412
419
407
396
383
395
399
410
419
420
418
425
404
396
403
398
394
377
374
365
378
396
400
410
443
456
452
447
422
424
428
444
464
465
472
477
485
496
495
466
455
443
439
452
455
446
452
472
472
478
508
509
494
481
481
498
510
490
484
509
534
511
507
552
555
535
506
488
489
506
500
483
490
515
518
507
500
498
495
490
510
506
500
503
534
554
555
549
542
515
481
489
522
544
526
516
516
521
535
550
543
527
518
511
500
482
480
523
549
571
565
562
567
559
545
521
526
542
560
575
568
562
562
568
555
541
544
533
548
542
560
584
590
590
589
590
610
607
607
581
564
565
542
553
580
593
604
626
626
592
578
565
564
537
507
538
568
581
601
597
604
638
689
736
803
878
936
978
1001
990
935
834
680
552
479
410
386
378
388
410
441
467
470
486
517
517
499
517
558
545
534
514
508
513
502
497
509
543
539
521
504
526
552
580
603
590
568
549
540
542
533
522
558
579
593
613
606
584
576
607
620
572
558
589
608
590
574
588
613
623
619
628
649
647
631
646
650
645
639
658
676
664
661
643
643
617
600
620
674
691
683
653
634
631
654
674
663
652
645
625
598
580
569
558
546
530
550
582
562
509
477
480
505
505
525
508
499
479
468
483
503
497
475
460
468
472
476
501
523
504
466
467
470
467
455
462
484
476
470
456
444
469
472
454
483
504
505
491
466
473
500
504
503
499
510
527
528
513
493
515
510
507
510
513
518
523
481
463
475
502
515
530
549
536
519
505
485
494
496
485
487
500
500
479
493
496
476
483
508
494
480
471
472
496
473
460
445
442
468
491
516
539
546
508
482
476
465
460
465
465
490
497
453
447
456
445
445
453
488
492
479
492
518
515
510
510
494
485
488
494
481
484
480
477
479
500
502
500
473
460
457
470
482
498
506
495
493
488
484
481
471
470
484
489
486
488
500
495
482
464
449
429
436
469
496
502
465
444
472
514
530
489
466
467
456
447
448
435
438
459
455
447
456
474
471
461
458
471
476
457
430
425
439
435
424
455
484
497
470
451
441
437
440
445
467
465
446
454
472
462
466
486
496
486
473
435
433
448
462
480
489
490
488
489
497
493
482
486
471
471
496
517
509
507
522
528
514
480
454
449
446
450
484
475
426
436
453
444
457
487
517
518
481
466
542
636
707
783
841
873
868
863
803
728
606
480
383
302
236
196
223
296
326
333
356
371
375
396
415
404
412
420
416
426
437
420
410
410
431
434
449
458
447
445
432
415
412
435
416
405
410
444
491
479
462
454
438
457
472
488
496
485
480
461
447
457
461
477
492
471
467
485
506
522
532
535
528
502
472
483
499
512
545
550
543
535
552
579
581
573
527
512
527
548
556
571
575
551
527
543
571
583
566
530
477
438
429
442
446
461
460
444
444
439
410
408
425
455
453
421
405
396
397
400
411
410
398
393
397
397
400
407
404
419
424
397
392
395
400
412
417
406
402
427
431
429
460
474
447
440
443
445
457
458
452
447
440
442
436
442
448
438
443
462
473
471
480
487
454
439
452
484
511
500
498
487
479
477
476
479
479
470
468
454
447
455
481
511
516
486
473
476
490
480
470
460
470
489
503
505
496
478
478
475
466
455
450
466
495
497
497
496
508
515
503
489
476
490
459
452
507
527
496
465
459
487
525
529
516
517
508
492
494
501
498
491
510
508
516
518
514
504
474
478
503
537
523
493
501
506
524
532
518
511
516
525
515
499
502
513
520
527
518
493
484
496
479
463
506
530
533
519
513
516
497
521
554
540
502
508
528
535
516
497
505
520
531
534
528
517
499
489
489
486
500
532
524
509
510
517
511
486
485
517
548
550
543
548
573
603
565
533
517
516
535
553
559
554
540
526
526
517
522
534
527
502
482
462
467
481
506
536
526
545
569
576
615
684
734
818
914
942
904
873
812
720
626
536
427
352
330
327
350
373
376
374
404
435
429
458
493
495
482
489
493
470
443
438
430
451
492
497
488
509
516
487
493
486
482
490
507
501
489
513
536
544
543
530
515
504
485
502
522
551
559
544
545
522
508
517
528
544
571
568
561
552
557
552
566
564
556
567
577
603
619
625
603
591
615
612
605
588
588
620
641
648
646
640
641
629
606
576
561
571
572
565
562
544
533
485
484
510
534
541
536
514
470
462
452
447
442
436
441
456
472
464
463
461
461
459
457
442
427
421
431
424
423
431
443
455
466
477
473
460
467
486
464
461
461
460
466
482
505
529
494
458
451
469
489
477
486
483
486
486
506
533
530
535
541
540
525
481
454
463
458
457
482
499
508
539
542
531
533
527
499
497
492
474
476
499
524
527
516
516
525
521
514
528
524
499
517
528
509
501
515
522
481
475
489
483
513
560
577
576
553
523
477
474
493
493
502
516
517
503
495
508
527
525
503
486
481
490
522
541
535
517
515
532
538
536
533
535
527
508
511
527
527
516
510
502
492
495
522
532
514
521
511
481
477
500
534
585
605
583
536
494
492
497
517
531
545
527
524
516
520
542
550
539
515
485
507
540
546
543
545
528
523
529
532
526
503
502
507
506
520
551
563
541
522
522
526
525
529
546
560
554
546
542
517
500
493
505
525
523
537
555
556
536
530
543
569
587
580
572
559
570
549
525
542
559
584
587
583
563
546
511
504
515
534
548
518
500
517
526
502
491
519
548
551
540
538
549
549
570
608
662
754
842
895
959
978
933
849
740
642
539
434
363
336
355
371
365
375
390
421
443
440
445
461
439
413
413
437
476
473
467
480
475
458
482
483
434
445
481
481
444
442
462
486
505
503
495
501
510
514
531
523
517
518
520
494
473
483
510
513
518
532
549
570
558
550
553
544
561
569
560
542
531
542
559
572
573
571
583
600
602
599
595
602
612
616
634
653
652
640
592
581
591
597
568
543
562
593
604
598
589
595
576
540
532
530
515
501
472
469
467
466
460
453
441
425
446
459
426
422
415
411
439
451
442
438
433
428
436
436
432
434
420
428
431
467
486
491
479
451
425
439
461
461
459
449
442
444
464
460
474
504
504
497
481
472
455
465
464
481
505
522
506
490
491
496
491
502
509
490
480
485
486
507
503
472
500
513
525
512
481
473
488
469
464
481
503
518
523
520
512
520
521
513
484
465
467
489
492
493
508
491
484
491
514
499
486
491
513
508
499
497
489
474
465
481
493
498
482
473
486
518
535
523
502
505
495
497
500
495
500
515
524
541
527
511
515
494
502
505
508
491
487
493
504
503
499
514
509
521
529
522
513
492
495
501
510
509
522
505
500
515
520
525
515
497
489
505
510
531
552
559
545
533
533
539
529
499
516
511
500
517
529
530
502
483
489
474
503
500
501
507
541
557
554
537
523
525
525
518
520
524
530
518
512
525
560
566
520
486
490
508
499
499
521
553
567
553
543
561
587
586
592
603
609
581
534
480
459
479
516
538
516
498
483
478
494
544
568
551
525
540
525
510
543
607
692
788
874
937
972
976
912
808
704
571
460
363
303
287
300
323
359
391
430
441
428
419
395
402
428
457
469
476
476
459
454
449
464
478
480
476
470
470
502
494
482
486
497
490
486
498
499
490
514
536
557
531
498
497
501
501
501
509
530
548
557
552
557
564
548
538
532
538
546
535
560
599
621
607
566
554
556
581
615
636
634
625
630
626
614
609
618
620
609
582
555
572
588
580
563
563
583
600
605
608
577
530
519
529
532
535
515
481
460
454
455
473
490
489
474
442
421
427
429
427
405
392
399
430
441
422
434
439
411
415
414
434
440
433
440
440
428
444
452
467
474
451
445
459
474
484
476
450
445
467
461
456
470
497
493
488
500
526
524
490
467
461
443
438
457
470
485
503
515
503
501
493
492
487
499
531
549
537
524
521
542
548
530
504
496
502
496
522
522
499
495
498
483
467
485
513
521
518
527
513
493
500
500
512
522
523
538
526
501
482
488
512
524
520
545
576
568
524
506
508
501
497
493
494
507
513
526
549
536
531
510
512
513
513
500
508
527
536
525
493
504
529
546
554
525
528
540
529
496
479
487
496
508
506
511
504
519
568
563
547
542
517
501
515
493
475
485
504
524
522
507
529
557
571
562
538
513
529
535
514
515
541
556
542
532
537
535
530
552
561
538
535
533
530
523
535
507
484
503
521
526
524
516
506
516
512
498
497
529
546
543
531
528
555
577
601
655
742
814
880
936
977
954
851
748
636
508
416
345
305
294
298
336
372
385
384
391
411
441
463
480
479
494
494
485
480
475
459
465
481
479
465
456
465
484
475
486
480
502
546
553
542
514
502
520
548
523
501
508
518
522
532
531
530
506
516
538
570
596
560
518
501
500
514
526
545
572
570
536
553
587
595
622
655
651
630
617
630
660
664
622
575
564
581
598
619
636
652
640
605
595
585
581
576
561
503
489
516
521
503
490
503
510
509
484
474
465
464
440
436
418
431
442
410
410
451
457
457
455
439
428
431
433
402
374
394
410
414
432
438
439
447
472
477
437
416
411
440
471
490
508
491
470
469
478
480
475
444
446
440
445
458
473
487
489
499
520
530
527
492
453
455
464
466
462
476
490
501
506
530
513
481
485
514
517
507
515
505
497
506
515
540
533
512
497
472
474
479
463
455
485
509
507
526
524
519
528
540
551
554
538
516
481
457
443
449
460
482
504
493
502
538
539
536
538
524
505
494
487
498
499
493
502
511
538
553
534
524
523
494
463
486
520
532
517
492
508
544
561
558
561
555
554
561
565
560
548
518
490
506
515
508
494
487
501
526
526
513
512
524
548
529
494
497
557
625
674
728
762
831
893
913
908
847
768
667
545
458
381
328
290
283
313
355
393
418
429
441
467
480
464
447
455
444
457
465
453
467
466
470
491
504
494
462
450
465
475
481
491
492
483
473
475
480
497
505
508
507
516
511
491
468
473
487
501
527
564
585
555
518
516
543
583
575
563
558
557
555
557
557
561
582
598
596
594
590
588
577
586
604
623
594
602
611
610
606
579
557
560
590
600
576
559
546
526
522
534
496
464
461
460
459
454
450
448
439
418
404
414
431
437
440
431
417
379
363
383
419
433
436
431
416
421
422
420
426
428
433
424
440
456
464
477
455
435
399
384
389
413
429
443
454
452
443
430
431
463
494
505
498
502
506
469
463
477
489
491
506
501
486
505
533
514
503
497
485
454
435
442
447
467
487
506
502
508
507
495
487
506
522
523
507
481
479
505
504
505
513
504
502
510
468
442
454
473
503
489
488
507
521
523
524
532
512
512
530
529
508
491
494
510
531
549
539
509
500
501
494
481
494
510
508
474
467
473
478
491
507
519
519
521
535
547
603
678
760
832
879
887
876
829
747
660
577
475
375
314
285
271
285
315
376
429
460
470
483
461
444
444
439
424
429
428
436
448
454
473
452
449
485
476
448
460
486
499
505
512
521
513
494
478
463
470
473
476
478
503
506
509
525
522
517
514
518
533
526
522
518
537
559
570
584
584
580
561
551
560
561
548
564
589
599
590
588
601
604
621
616
601
595
583
593
596
595
581
576
576
570
560
558
555
560
559
530
508
494
459
462
449
442
450
441
432
412
410
435
443
446
453
456
443
415
410
417
428
421
417
418
422
423
429
433
429
459
473
454
429
410
412
404
400
412
443
466
487
492
501
521
499
496
468
436
421
448
480
467
458
475
476
471
473
470
481
479
506
520
503
492
502
516
517
517
515
510
493
473
457
467
479
496
524
520
517
516
506
472
468
489
483
501
508
481
482
483
481
499
510
510
514
517
513
516
503
486
501
506
513
507
505
499
507
502
483
477
519
553
542
521
516
518
492
488
497
499
497
490
498
505
517
522
499
469
476
503
536
557
564
570
572
550
534
530
557
551
537
529
536
544
538
527
525
521
501
487
486
495
520
526
513
498
498
503
477
458
466
496
528
544
571
594
630
681
768
851
908
930
921
882
808
698
583
495
403
343
311
295
321
372
395
416
433
443
424
429
429
422
435
463
464
457
462
465
468
493
497
501
513
516
497
461
459
460
472
488
494
499
491
471
476
492
519
515
487
496
514
540
536
530
533
526
510
513
536
560
564
548
551
560
550
538
550
578
574
553
564
591
599
606
609
605
612
607
607
621
642
643
612
605
614
614
620
601
576
570
558
545
539
551
563
566
573
553
515
496
494
499
509
499
481
472
467
451
448
448
452
477
466
435
417
401
382
390
413
428
443
434
425
429
418
407
423
440
439
448
455
467
467
458
456
460
453
450
460
464
480
512
501
465
446
471
490
496
495
490
496
489
468
472
469
444
445
478
492
497
478
488
500
512
501
495
493
497
488
511
542
562
517
483
447
447
493
465
454
481
500
511
527
530
540
525
493
497
515
508
494
500
500
502
487
478
475
493
522
491
463
480
486
487
477
485
476
482
495
490
483
498
508
507
484
455
459
506
515
514
512
516
521
509
502
492
507
500
491
496
511
506
519
541
560
570
579
595
590
549
512
491
493
503
517
531
524
517
502
492
485
489
490
488
500
481
479
495
529
559
608
637
663
713
766
828
893
931
927
873
782
669
513
416
357
334
325
322
339
361
359
373
383
407
431
454
456
465
464
464
462
475
504
517
506
481
444
427
425
422
438
454
456
467
471
473
469
474
508
548
556
548
526
500
488
495
524
542
539
528
541
516
508
537
549
548
541
569
573
532
500
513
530
554
572
600
601
590
579
588
605
603
591
604
610
622
630
631
614
615
610
602
568
558
565
591
581
573
595
586
553
545
537
542
528
534
528
497
497
514
461
427
451
472
460
436
405
396
404
405
388
420
479
489
476
452
427
425
445
446
441
425
440
461
484
472
466
452
432
427
418
420
431
419
444
472
482
486
487
481
469
443
435
454
475
492
522
523
512
509
490
489
507
504
483
482
485
465
445
470
502
508
497
509
491
468
496
513
509
506
504
503
504
491
482
485
501
506
508
485
497
497
514
506
501
497
481
486
508
509
477
478
501
517
521
507
497
483
482
460
458
508
537
530
534
536
529
498
471
473
497
515
518
512
504
506
498
484
491
506
508
522
532
499
490
516
523
519
529
522
530
556
531
497
487
510
527
524
521
514
508
525
524
519
530
548
540
513
492
475
482
494
492
487
516
527
526
532
521
534
522
530
551
559
560
532
536
557
543
517
498
499
511
515
514
527
530
542
532
522
520
506
502
495
481
478
498
509
520
555
555
542
541
554
554
542
546
552
519
498
500
507
509
529
541
542
515
474
468
480
492
504
521
537
533
526
527
527
516
501
503
534
561
568
539
517
509
506
503
499
508
510
509
528
524
495
475
504
517
511
528
542
552
554
537
526
538
556
534
508
505
518
533
537
550
553
552
551
540
552
564
573
558
540
537
539
519
499
491
522
543
538
519
502
494
478
473
485
508
527
517
528
566
625
714
793
854
920
936
902
828
736
631
504
422
393
396
372
340
323
359
397
415
425
426
421
411
421
420
417
420
462
476
447
423
417
430
453
467
473
472
469
462
472
474
480
494
509
496
497
487
483
474
461
471
480
494
515
496
493
508
540
530
535
528
511
511
527
576
596
572
544
524
508
504
528
544
534
531
548
563
560
590
624
642
636
615
586
582
584
599
643
654
627
606
603
602
621
632
622
622
610
608
596
583
584
559
536
535
527
553
568
548
511
510
512
516
516
515
506
466
435
433
452
467
449
414
410
446
480
485
462
431
449
481
476
431
413
432
451
450
426
451
476
487
479
476
482
473
463
453
432
426
439
470
491
480
464
468
455
452
465
486
493
477
456
461
468
475
484
486
473
478
503
525
504
507
521
500
458
465
492
477
464
487
487
483
491
511
527
522
499
460
452
473
481
481
473
476
481
466
460
447
463
485
475
486
501
499
505
514
497
474
476
493
512
520
508
499
489
477
471
492
509
500
491
485
495
489
476
472
479
498
524
534
514
503
540
562
562
527
502
493
463
490
522
518
512
497
495
501
515
512
515
529
527
511
493
483
495
502
504
534
549
538
518
512
526
516
527
528
533
523
527
523
532
536
532
501
495
500
477
480
489
517
548
546
530
537
541
551
506
484
496
527
529
491
491
506
519
548
549
517
519
518
514
498
493
494
494
517
521
537
549
552
531
545
555
540
518
535
553
557
555
552
543
535
555
577
588
569
569
560
565
576
581
556
550
523
497
458
451
473
485
496
505
515
525
512
516
521
504
541
617
719
822
915
978
1011
999
964
865
738
602
483
407
345
318
318
327
317
337
365
395
418
424
432
428
452
448
428
436
446
450
445
410
425
449
478
516
519
501
480
457
452
450
435
434
442
466
470
471
457
471
480
499
497
479
488
495
499
505
514
540
541
540
543
530
522
532
535
527
527
548
572
559
543
548
560
580
589
572
570
546
545
584
601
591
589
591
603
609
616
617
622
605
597
574
562
564
561
552
548
554
552
536
517
485
461
464
486
512
522
520
474
417
403
414
433
451
462
443
392
399
436
459
453
442
432
414
411
393
380
409
413
415
418
415
404
413
427
437
435
460
458
437
429
456
470
473
471
460
476
492
464
461
453
451
431
424
428
439
466
477
497
485
465
473
498
514
502
482
488
480
481
506
503
489
452
451
461
485
491
504
490
470
472
495
500
502
501
489
487
498
517
537
513
488
507
508
483
464
456
461
496
509
498
486
480
497
500
490
485
483
505
505
513
509
494
505
527
535
531
503
480
508
520
477
454
457
470
486
489
495
507
524
528
510
495
487
472
472
491
502
509
520
546
544
513
505
509
497
478
471
477
487
481
472
482
486
506
507
503
516
518
496
498
547
565
566
562
509
484
475
477
495
509
490
498
519
534
534
515
516
511
514
507
510
513
515
513
514
496
494
506
516
515
526
527
522
524
518
513
506
497
516
543
526
502
482
495
510
532
560
585
580
557
540
535
550
569
572
573
575
561
544
529
528
521
539
565
569
531
490
470
464
459
450
458
482
497
517
519
525
535
545
581
627
716
819
918
968
982
955
920
846
730
596
473
391
350
331
350
365
362
371
393
391
387
400
409
426
442
433
425
429
444
445
441
453
472
491
499
475
443
450
471
465
450
455
474
491
504
503
490
474
486
506
509
513
521
518
501
494
497
525
527
524
541
527
532
536
547
557
563
549
529
525
544
547
542
543
580
603
611
600
601
620
622
623
621
628
616
606
607
616
606
608
631
638
631
618
602
604
606
597
579
561
549
558
558
527
503
471
444
454
481
505
486
474
484
464
451
425
430
443
440
429
427
418
431
439
436
422
410
415
408
396
409
433
452
451
449
464
472
472
451
468
479
458
429
425
425
417
436
461
468
470
444
441
467
490
491
495
493
486
507
510
501
501
515
521
463
440
461
478
489
504
496
495
494
467
453
449
462
485
503
508
510
509
499
493
490
464
452
476
515
520
505
480
473
472
485
495
490
471
459
442
468
511
533
529
495
460
448
464
481
488
496
504
464
442
456
475
473
475
491
500
494
492
505
511
506
503
486
470
474
476
478
493
486
478
474
485
480
468
451
474
504
523
509
487
496
526
508
485
494
506
491
498
511
522
521
521
521
519
524
515
503
475
440
436
461
484
497
518
537
538
520
516
519
510
503
510
518
519
523
523
526
546
562
539
515
493
491
512
555
566
545
504
464
480
507
547
575
576
543
524
534
562
588
585
578
591
605
583
568
579
587
567
561
559
571
563
500
488
497
500
492
525
554
565
552
543
521
500
516
545
548
536
547
591
611
631
665
745
849
935
983
993
957
891
792
672
563
437
348
300
270
285
317
331
360
394
423
442
440
441
439
447
452
454
424
419
455
476
482
492
504
503
515
517
513
511
509
525
557
553
541
528
519
486
481
495
495
516
517
516
522
531
539
527
503
472
482
524
562
578
553
555
584
589
574
560
548
553
579
595
618
608
604
626
627
607
607
607
588
590
610
618
616
630
635
631
605
582
588
602
615
625
609
600
602
569
553
537
521
502
477
475
468
476
468
463
469
463
451
430
430
438
443
439
446
459
458
453
438
414
406
410
412
395
380
385
401
436
458
453
417
413
435
446
457
449
443
451
463
464
459
442
434
413
423
446
466
472
459
462
480
471
446
479
502
511
493
479
478
478
450
437
444
480
498
494
488
465
461
469
473
493
497
490
505
518
507
488
494
511
521
512
475
462
462
473
486
500
518
504
503
490
496
509
508
513
519
506
484
467
471
495
520
525
547
539
501
480
480
490
507
520
524
526
523
502
492
486
489
499
498
504
507
521
518
502
522
537
533
509
487
476
476
498
479
453
471
494
525
538
509
488
477
472
469
487
512
503
517
533
546
531
515
488
488
498
507
507
489
498
500
491
472
472
476
501
525
526
513
492
493
498
505
515
530
560
548
526
525
541
545
535
541
550
543
544
538
522
513
520
513
497
475
488
506
509
506
530
542
518
493
496
516
555
566
603
642
673
713
786
875
930
935
877
813
728
615
500
395
334
302
295
317
348
366
363
370
396
404
406
417
451
440
439
454
448
447
462
455
460
480
518
514
511
491
491
504
504
525
522
512
505
493
487
481
476
485
503
527
538
526
520
512
500
512
534
546
539
545
567
592
588
570
521
516
522
554
580
592
586
578
575
586
596
614
633
637
633
609
609
607
599
590
589
595
596
603
595
612
630
622
619
621
605
578
565
521
489
481
476
476
492
504
488
458
448
456
456
447
439
414
418
441
452
447
430
432
422
414
399
387
376
393
397
411
435
432
424
430
441
443
427
408
404
408
417
433
435
426
440
449
455
448
455
452
441
436
441
453
481
505
503
487
486
483
473
446
457
490
487
488
490
473
470
496
516
509
511
514
506
501
505
524
539
522
487
470
488
515
528
530
532
515
493
492
504
507
508
506
497
506
505
509
525
535
530
518
516
513
515
521
523
539
553
550
536
522
504
510
535
559
561
544
530
520
526
535
537
539
537
518
508
505
525
531
516
519
518
517
493
496
539
603
659
716
792
857
907
919
879
805
715
590
472
385
331
317
331
360
374
353
351
364
386
410
438
454
458
473
478
480
477
490
505
497
488
473
475
486
507
509
500
503
505
505
491
477
490
504
520
511
491
499
501
512
545
553
539
527
503
493
498
523
535
532
523
526
537
535
548
552
560
567
602
615
583
580
583
589
595
592
605
625
641
640
638
632
601
573
609
617
621
607
588
582
589
609
616
604
579
553
561
574
557
512
467
457
464
470
464
452
459
461
444
424
409
413
416
412
417
447
449
434
423
409
409
410
415
423
437
437
426
411
388
393
427
420
415
421
421
437
454
450
438
451
464
472
456
437
444
439
460
476
457
456
453
450
475
495
493
487
487
493
483
481
477
453
453
474
482
469
465
482
496
498
497
490
493
483
473
468
483
488
455
453
486
505
506
506
511
516
508
514
508
473
465
493
499
520
541
523
492
464
462
474
473
477
502
549
556
554
546
525
499
498
503
490
488
496
515
526
525
525
539
548
546
529
529
501
490
489
519
573
638
727
818
869
883
851
811
756
650
543
444
367
331
320
327
336
335
352
378
394
403
421
452
460
467
459
448
442
436
448
444
426
444
437
437
483
514
507
495
487
457
441
454
476
487
485
474
462
470
483
496
503
485
479
496
499
513
529
541
534
497
486
463
470
499
548
560
558
565
570
551
528
551
592
595
576
553
550
562
594
612
604
585
585
577
586
599
607
597
582
574
573
576
569
573
571
566
541
518
498
494
496
492
488
497
493
486
447
420
422
424
452
446
395
392
430
448
458
448
465
493
487
446
401
394
409
424
417
423
423
412
419
429
454
465
462
457
471
492
479
464
475
476
467
458
465
478
491
483
467
480
486
492
494
497
496
495
489
468
482
500
509
501
483
477
473
487
513
520
517
502
500
504
505
491
490
492
499
509
514
518
505
506
520
530
530
522
499
470
475
495
504
510
520
518
524
532
510
519
514
507
500
475
473
483
501
511
492
492
510
527
550
521
482
478
491
513
542
550
527
509
504
498
495
498
513
543
532
517
523
559
571
546
507
502
524
538
541
551
543
530
514
497
520
553
570
564
547
527
504
497
502
491
492
504
496
490
500
532
548
592
637
693
755
813
868
894
889
855
803
714
595
494
424
385
362
356
356
364
375
389
403
429
462
464
438
447
460
447
446
450
453
460
482
488
478
464
452
459
476
488
479
500
523
522
503
478
482
496
497
512
527
547
549
544
530
544
550
546
524
523
530
540
510
494
518
520
532
552
540
552
576
582
569
564
585
618
648
636
627
605
584
603
628
636
644
667
665
649
628
615
606
608
609
608
591
578
575
545
522
538
569
580
557
542
532
529
522
499
496
510
512
485
456
440
437
422
426
438
440
437
454
458
446
428
426
443
462
464
464
457
450
460
449
453
473
469
444
429
441
432
439
459
485
504
506
481
474
490
483
467
478
496
508
482
464
464
466
487
506
487
468
472
509
501
489
493
502
508
504
509
502
511
510
502
499
496
496
501
501
500
490
507
525
524
515
534
543
547
534
494
481
475
475
509
497
488
485
488
490
502
502
491
501
513
533
549
539
525
520
527
526
524
526
540
535
504
487
498
512
510
511
533
543
529
528
529
517
520
532
532
516
514
509
492
486
515
548
553
551
519
501
494
499
503
505
502
514
516
514
504
512
543
557
549
541
528
508
485
505
517
536
548
545
541
532
521
535
528
471
464
472
484
515
546
568
547
519
508
503
502
504
505
508
524
537
546
551
541
528
517
522
534
520
505
514
530
527
509
499
484
486
497
525
553
543
514
505
515
519
517
521
522
541
535
524
520
527
520
522
522
542
535
537
532
516
522
516
516
498
471
477
488
517
520
498
498
514
529
529
508
507
497
496
496
510
526
529
528
549
549
540
564
562
537
510
477
476
483
498
519
527
535
533
530
525
500
488
517
540
545
545
546
528
526
548
551
557
558
573
591
547
500
489
520
553
566
560
542
543
550
532
512
505
525
548
534
511
503
503
500
487
465
465
499
518
504
523
542
560
612
685
753
821
871
910
914
894
825
718
627
530
412
349
343
342
351
353
364
381
382
407
450
449
442
446
464
476
496
467
424
394
429
482
489
468
457
457
456
466
468
482
493
504
508
507
491
481
477
475
491
500
489
490
496
504
524
524
507
508
511
510
510
523
516
522
535
549
550
542
544
556
566
580
580
584
605
577
567
577
546
547
584
607
609
585
570
586
611
618
613
613
633
646
647
631
608
595
590
593
576
563
565
573
561
529
499
511
517
493
498
479
478
480
472
460
449
448
453
467
478
480
466
466
437
432
437
421
411
437
447
453
458
448
431
464
467
443
413
413
439
464
487
489
455
449
450
473
483
480
473
478
486
482
481
489
476
444
427
420
444
467
485
497
505
496
487
467
470
474
491
506
504
486
484
499
486
487
489
478
495
492
484
477
493
525
531
516
514
537
547
531
498
475
478
487
507
505
505
500
496
504
511
506
491
474
462
468
470
488
491
499
508
516
510
502
514
522
517
501
514
536
549
562
549
528
514
500
507
532
519
477
496
521
517
491
504
514
495
479
495
512
508
496
493
518
544
556
538
517
501
476
473
498
510
517
532
563
543
524
519
486
474
500
487
486
506
516
506
502
516
533
529
508
507
511
498
498
515
508
539
538
519
513
506
505
525
537
529
513
497
519
514
516
538
543
545
541
524
494
485
476
477
497
509
513
529
523
513
504
500
496
496
496
497
505
510
507
513
516
494
474
494
533
532
526
491
494
529
564
583
561
525
490
499
512
531
537
529
521
516
524
523
506
510
543
550
546
542
528
525
520
514
529
529
533
526
518
522
531
508
505
507
509
507
503
501
494
473
479
489
484
486
503
508
531
541
551
586
678
781
853
894
910
887
848
786
701
610
524
452
405
387
360
352
361
366
389
406
401
435
463
471
445
417
405
402
398
413
446
461
443
439
481
495
485
458
448
436
446
470
480
479
470
467
494
530
519
506
497
491
483
498
509
517
516
504
495
513
537
524
485
481
494
504
529
548
569
596
603
597
582
565
552
543
560
585
574
554
558
575
603
610
612
629
617
618
617
618
589
574
598
594
587
600
583
564
565
560
552
545
523
523
505
499
505
500
495
499
484
459
447
429
440
450
448
447
442
442
442
455
459
442
441
443
438
427
420
419
400
392
400
415
416
429
443
445
445
442
434
420
444
453
449
462
497
525
520
476
449
435
420
409
415
442
473
484
487
473
467
469
492
501
492
493
503
503
505
495
492
489
490
494
493
482
482
471
464
468
511
542
544
516
478
465
477
477
476
483
482
482
494
489
478
490
526
550
527
496
503
511
500
496
514
533
533
521
506
494
507
519
538
522
510
488
468
473
475
487
484
480
479
491
505
515
513
526
522
503
478
480
505
509
489
490
506
508
518
537
559
563
538
511
495
498
512
522
508
514
503
504
533
520
496
500
522
524
529
543
536
515
518
512
495
486
497
501
496
520
520
510
512
528
546
557
558
555
555
525
498
475
474
484
513
538
559
564
519
500
490
487
521
543
533
538
534
523
516
524
541
533
522
516
507
517
518
506
505
519
526
537
546
538
535
533
502
490
506
499
505
544
547
540
542
533
516
503
542
559
561
534
526
539
551
549
578
592
578
560
563
553
553
543
502
507
526
538
542
529
510
503
516
512
515
528
519
522
519
508
503
478
481
516
531
512
486
499
531
542
564
639
753
854
935
967
975
952
877
769
651
537
433
375
346
329
328
345
373
401
424
412
394
383
378
399
436
456
471
471
450
412
414
403
416
434
459
485
486
484
465
451
440
451
457
467
475
481
496
510
525
527
506
486
477
478
507
515
508
516
509
511
527
527
534
543
546
545
540
518
511
519
525
556
583
606
604
580
564
576
594
607
614
590
595
617
607
611
626
638
643
633
621
612
603
589
576
567
561
570
569
547
541
546
546
536
507
498
477
441
418
426
446
439
437
461
462
449
449
431
431
452
460
459
435
415
403
400
402
412
428
428
407
403
406
409
414
405
394
395
410
433
440
430
414
411
428
450
453
446
446
445
441
460
473
461
476
509
481
461
496
489
460
445
449
444
432
425
425
417
436
464
452
446
452
469
489
507
512
500
488
480
465
458
495
512
499
493
475
457
459
468
494
516
503
484
459
435
433
426
425
468
491
493
480
461
451
473
488
486
497
515
511
490
462
452
492
519
509
498
482
462
456
467
458
460
472
479
483
462
437
442
469
490
530
563
552
526
485
431
425
469
488
493
516
537
537
513
495
501
498
501
509
500
456
436
447
476
500
502
492
485
499
498
483
495
490
511
539
538
522
550
570
561
542
521
488
470
492
521
509
507
526
524
515
508
483
506
528
520
494
486
508
517
529
537
530
514
517
534
543
529
526
520
501
489
492
512
516
517
529
551
580
570
539
520
512
505
509
533
544
550
545
555
568
594
602
587
563
561
555
531
546
565
577
560
550
549
551
545
554
560
574
592
578
583
577
543
527
551
578
571
566
581
542
510
500
503
513
514
527
514
515
521
568
654
746
823
902
976
1023
1023
995
932
811
673
560
467
393
349
347
372
383
384
411
453
453
459
463
457
452
450
441
448
470
481
490
507
504
483
483
512
501
492
513
527
504
498
512
513
523
535
521
498
498
515
523
533
550
553
544
543
547
569
564
563
578
570
573
587
586
575
566
582
601
607
610
636
661
646
621
618
617
623
635
645
646
637
648
646
644
636
649
672
671
669
662
646
632
648
657
637
622
625
638
640
619
624
634
629
590
567
553
538
548
541
515
506
489
462
477
475
485
458
435
438
445
458
455
468
464
442
433
465
496
523
501
473
456
466
476
476
492
499
477
448
469
476
460
446
431
462
483
494
498
494
458
454
454
450
464
482
514
516
489
497
517
519
521
515
500
498
491
507
527
525
508
490
489
502
518
507
486
494
488
488
485
469
447
459
499
509
502
489
477
489
509
536
541
521
511
501
484
480
474
489
499
487
503
504
480
469
483
477
472
472
482
486
501
528
521
500
502
490
465
468
472
473
490
506
502
500
491
479
487
496
492
499
492
492
490
489
486
473
480
479
474
487
500
495
486
480
488
517
522
511
510
492
480
476
496
506
496
481
469
475
477
479
485
491
488
499
519
517
499
503
486
474
468
482
506
504
491
493
511
508
480
481
485
483
491
495
506
504
493
497
496
511
512
512
527
503
476
473
468
488
492
487
491
489
484
488
506
519
499
463
458
495
517
506
507
504
500
522
533
509
485
486
513
546
582
571
554
516
488
482
494
510
513
509
514
523
530
522
480
455
464
476
495
500
492
483
479
477
458
447
450
454
456
476
493
540
587
623
706
813
905
972
987
941
853
729
591
471
362
304
277
262
268
282
316
326
324
328
374
414
420
414
404
405
406
401
420
439
433
426
423
415
415
438
452
443
461
465
465
460
465
481
479
468
463
458
469
493
510
510
489
490
487
482
490
521
501
489
495
503
501
507
485
487
522
537
538
546
552
560
557
570
575
574
583
594
578
588
609
613
606
594
600
591
590
600
605
591
592
604
600
604
621
616
589
555
537
536
527
508
515
514
509
496
487
469
454
438
457
465
455
439
433
431
423
404
398
388
386
391
408
433
435
424
415
402
386
386
388
388
384
393
424
446
462
467
450
403
378
349
375
434
466
449
458
464
459
452
437
440
461
465
468
470
453
445
438
450
484
518
516
477
464
471
476
493
496
479
451
455
478
505
504
504
494
499
516
537
548
529
499
475
479
505
492
463
465
484
501
507
494
507
535
543
547
523
481
454
478
508
502
497
490
492
488
512
505
486
496
506
490
483
489
499
504
514
533
533
523
521
525
532
547
561
555
520
494
484
503
483
471
493
496
500
516
527
513
511
521
520
512
505
497
496
508
524
531
534
548
557
539
522
499
521
563
556
522
499
493
520
544
565
543
524
534
519
503
525
524
524
516
496
510
527
533
515
500
510
527
518
519
529
534
532
534
534
521
492
487
520
542
526
521
539
554
570
589
578
558
543
552
547
561
576
570
570
554
512
503
526
546
559
554
536
501
503
507
495
483
499
515
512
525
521
507
526
530
534
529
532
550
592
658
752
856
953
1004
997
945
860
750
650
533
418
338
277
268
287
302
337
370
385
399
398
430
444
458
463
461
453
405
403
425
457
484
496
504
471
464
463
477
501
513
506
475
454
472
488
503
512
512
506
515
508
499
508
526
546
545
524
495
481
472
498
514
511
508
518
532
539
551
572
582
568
558
585
612
606
580
571
582
594
615
599
594
596
584
606
643
659
649
614
610
617
602
591
580
580
578
584
570
555
553
568
549
532
539
525
510
480
459
448
454
468
464
438
424
413
422
429
440
428
403
401
401
406
414
433
433
427
420
416
432
424
437
436
434
435
429
433
427
410
407
423
417
415
417
430
432
426
449
475
487
494
481
460
448
428
422
455
494
496
489
493
488
493
486
459
460
464
444
452
482
509
505
462
452
462
458
474
515
502
492
485
490
500
494
492
467
455
461
475
477
474
475
479
481
475
450
451
460
474
507
527
513
489
479
481
475
491
489
485
489
502
499
477
471
442
435
468
511
538
525
495
465
455
466
467
486
504
520
525
519
496
482
486
515
530
523
536
569
562
556
541
516
489
464
464
494
510
531
527
501
497
507
502
487
492
503
506
507
496
488
480
493
525
600
678
752
821
902
960
999
983
910
803
661
534
433
353
323
342
345
339
348
357
356
371
410
434
414
402
412
428
443
424
408
419
450
491
515
481
445
446
433
433
440
451
484
492
479
473
475
480
466
455
466
475
490
524
533
513
510
514
508
502
506
493
472
501
522
532
548
553
555
570
586
593
585
551
523
528
545
560
571
594
589
601
616
647
641
618
597
597
611
592
569
584
597
605
600
595
578
575
578
577
572
556
529
512
515
511
505
488
468
455
438
434
442
435
421
413
428
428
430
428
433
447
447
410
396
397
400
407
412
403
404
407
408
427
455
461
451
438
423
425
439
435
437
461
476
486
482
473
469
479
481
502
514
487
474
467
454
446
461
475
461
463
474
472
461
466
496
510
509
507
507
516
535
518
500
485
492
472
482
507
493
476
511
539
529
526
502
480
468
477
495
496
499
506
524
532
528
493
476
486
488
502
513
511
507
527
538
540
555
580
590
565
554
536
504
488
487
496
513
500
476
478
504
528
529
488
451
452
478
490
527
554
546
553
605
641
701
784
887
944
954
956
906
818
737
645
546
448
384
343
312
312
316
334
376
429
447
445
466
476
470
476
476
471
468
463
470
481
473
454
466
490
484
478
473
464
485
504
516
526
518
508
505
512
502
501
501
501
529
546
554
536
516
503
501
503
506
536
557
551
542
551
565
561
561
565
565
564
557
563
583
608
635
642
630
644
652
656
648
623
617
619
616
611
622
638
641
663
668
629
588
600
612
612
583
535
509
515
506
494
487
497
482
459
442
444
446
444
436
440
431
410
411
425
441
448
454
446
446
428
407
378
396
426
451
462
454
453
448
446
455
442
425
422
427
425
423
436
438
433
432
431
444
469
491
480
492
493
476
463
461
474
481
500
508
492
463
449
469
505
522
530
505
483
488
498
504
503
517
517
484
475
474
470
471
492
500
527
515
471
471
489
501
519
522
526
521
512
489
470
475
496
510
526
571
567
541
539
534
517
505
524
562
558
525
505
520
524
518
513
510
465
461
471
486
496
498
508
510
516
506
493
500
537
591
642
683
744
815
888
939
940
896
822
722
612
485
366
303
282
308
328
330
338
351
376
415
455
478
474
479
478
466
462
458
471
479
465
434
441
464
477
472
479
497
497
476
473
488
492
478
484
491
475
475
493
495
496
509
525
539
556
558
524
509
510
522
533
551
569
550
543
532
543
544
556
579
585
611
593
559
553
560
588
599
591
613
632
627
628
633
627
612
606
601
595
585
605
630
640
633
621
586
563
549
540
528
497
485
487
505
521
511
480
456
454
460
458
462
449
451
426
413
397
385
393
419
455
473
458
447
462
468
457
414
449
480
456
444
440
413
392
399
430
454
459
472
459
435
428
448
468
497
501
467
462
473
486
505
532
532
523
516
507
481
481
481
474
510
524
516
532
520
502
483
478
489
519
542
544
523
491
467
474
494
508
507
517
529
522
519
525
545
515
507
520
526
510
488
510
554
567
559
527
509
494
500
499
512
517
522
518
529
513
503
502
526
538
516
513
518
530
532
516
509
520
530
547
568
568
542
538
542
531
529
523
511
507
530
539
529
481
461
474
477
488
507
531
537
521
540
602
695
764
824
889
920
925
877
801
705
627
569
484
385
334
317
316
351
391
430
460
442
436
459
475
476
456
459
474
468
453
434
430
452
486
516
521
496
469
475
502
502
505
504
492
495
508
509
500
490
513
532
548
558
571
581
568
541
504
500
509
495
515
536
546
563
572
566
568
543
525
539
572
590
583
561
557
571
613
652
671
653
634
629
609
606
607
599
588
590
597
593
616
616
621
618
624
596
569
543
525
505
519
529
508
508
500
472
449
444
457
488
498
487
462
443
432
415
427
408
400
416
425
433
439
453
430
420
426
436
439
440
459
451
434
424
455
469
478
487
472
440
425
411
406
423
460
475
476
461
464
460
454
471
506
495
474
467
458
464
482
511
509
498
492
496
504
519
519
468
441
466
479
485
488
487
495
520
508
492
507
517
524
514
489
479
485
494
493
498
484
479
485
489
493
491
499
515
513
504
497
474
488
482
481
485
479
491
496
497
484
488
512
537
542
547
519
499
501
502
502
497
499
501
499
511
512
483
494
512
525
538
533
525
518
518
533
541
541
510
516
525
518
505
519
549
544
523
506
490
525
537
491
462
443
443
457
488
512
525
547
588
659
727
790
838
877
899
897
847
760
670
572
477
402
329
293
306
338
377
396
400
417
427
425
427
422
438
467
483
473
453
451
452
453
465
477
473
470
483
468
444
473
477
482
492
516
498
487
488
504
504
505
510
512
524
514
503
512
522
533
512
499
505
501
498
535
573
572
566
580
592
589
557
559
560
562
573
590
606
601
603
605
610
597
573
584
604
608
622
624
606
614
645
620
614
612
611
582
559
552
550
544
530
538
545
529
504
470
454
464
463
451
452
454
448
429
428
427
432
416
411
429
453
450
432
417
416
433
466
470
453
436
447
459
422
397
390
401
439
468
465
457
453
459
458
462
452
459
486
488
476
466
455
449
474
486
466
467
473
490
507
487
500
515
495
475
452
446
458
485
509
533
531
521
525
518
493
489
502
484
463
470
496
525
520
517
527
514
496
486
480
465
464
469
481
484
481
494
503
492
505
524
526
540
526
509
503
507
488
471
476
488
493
523
530
509
528
527
516
489
462
457
474
498
534
543
533
525
516
496
486
496
487
491
494
495
502
513
516
524
516
507
507
523
516
507
495
500
520
518
520
526
529
524
516
518
524
507
500
491
492
505
517
523
519
494
465
457
460
502
550
557
545
536
534
523
503
499
518
515
526
538
546
527
497
491
513
523
511
503
515
518
507
525
507
505
514
532
529
500
493
514
517
508
503
509
528
554
559
556
544
515
514
527
524
519
519
522
541
539
525
520
513
517
534
527
518
519
514
497
497
527
542
537
540
533
504
500
495
501
507
519
516
520
521
527
524
537
552
566
566
555
549
551
570
548
533
542
531
522
524
526
512
532
573
563
546
545
545
545
543
546
544
513
504
500
499
488
499
527
546
526
521
545
544
538
532
522
526
527
506
507
539
607
670
735
812
890
937
951
904
814
732
642
566
474
369
322
322
327
340
371
398
405
406
413
444
450
439
430
420
449
481
488
467
462
460
464
475
467
456
469
464
454
465
485
508
493
464
470
484
501
504
514
515
502
509
522
518
491
481
476
485
504
528
551
561
562
544
537
551
567
553
528
525
546
552
580
592
606
588
578
575
548
566
577
579
551
568
618
645
651
632
640
653
638
622
602
595
599
614
618
612
608
599
591
564
532
532
520
513
503
496
505
524
512
496
489
459
434
438
447
466
466
455
448
447
435
421
421
416
424
444
431
423
442
452
447
426
404
408
439
466
444
428
426
421
419
436
450
456
455
448
462
483
492
474
453
450
465
482
486
476
449
447
496
523
506
482
490
489
491
487
486
497
505
480
459
455
470
478
487
494
501
501
500
508
509
498
488
476
483
474
459
455
469
491
524
518
499
481
486
495
508
525
518
496
472
469
475
482
480
468
480
484
501
515
498
492
488
482
491
507
504
483
473
505
526
526
524
522
498
486
479
462
467
485
501
501
487
481
478
487
515
516
514
525
510
506
526
536
552
535
543
517
488
470
472
502
513
513
521
515
511
500
480
488
504
514
513
514
497
504
523
529
524
523
500
489
494
511
531
546
547
541
511
485
478
478
479
485
497
496
497
493
496
525
561
578
549
509
484
493
493
491
498
506
497
498
509
519
504
493
490
502
522
517
498
513
519
508
506
519
537
542
546
521
508
505
508
504
506
548
580
564
563
553
527
505
503
518
533
548
543
535
532
494
474
490
508
515
487
464
477
496
484
485
491
500
491
479
484
519
568
606
660
750
838
895
924
910
866
800
702
575
473
413
358
316
300
294
327
350
358
380
399
396
400
402
412
434
445
425
416
414
433
451
466
474
491
464
440
456
475
468
462
480
467
444
432
436
427
432
463
473
456
464
480
499
500
488
480
477
488
470
461
478
507
529
534
542
533
531
535
537
558
569
550
527
523
532
544
559
557
555
544
539
531
549
576
587
579
587
604
598
577
552
566
580
585
581
581
575
562
555
548
534
509
473
469
463
461
482
496
488
459
428
432
459
453
422
406
389
409
399
411
423
422
430
441
416
393
372
364
355
371
389
414
435
449
417
411
426
429
447
464
457
440
433
407
387
411
459
482
468
448
449
414
390
392
430
442
452
463
465
463
480
481
473
458
435
433
457
493
517
504
476
472
480
496
514
481
445
457
489
523
525
513
519
518
491
473
455
469
483
486
459
454
476
529
559
541
499
468
462
485
517
517
487
467
478
496
520
526
484
465
457
494
539
564
544
499
479
494
486
477
497
505
509
517
496
485
501
520
539
552
554
530
505
515
536
546
567
588
575
551
537
550
559
557
551
537
522
528
528
529
520
512
509
518
527
532
535
551
536
492
520
542
561
578
581
574
567
575
565
540
532
531
535
540
546
556
566
565
552
526
520
540
563
582
588
589
591
549
535
552
548
561
581
578
570
556
567
558
538
534
538
561
568
562
553
556
560
572
592
604
598
589
607
593
572
569
576
593
619
609
560
551
562
591
598
563
560
582
606
627
636
587
536
516
500
518
545
556
583
602
612
576
564
566
549
543
537
515
514
551
607
683
770
830
904
950
953
952
916
855
759
642
547
463
404
368
357
384
425
453
470
491
505
486
456
440
446
446
439
428
460
495
497
504
489
461
480
493
496
492
499
497
499
531
538
557
578
569
527
529
534
525
495
487
490
522
528
509
494
496
493
505
526
548
545
546
566
591
607
613
613
588
579
587
562
557
566
590
603
597
592
592
598
602
598
596
587
584
580
597
612
622
625
627
628
632
632
611
593
594
612
615
582
552
539
547
570
552
509
503
496
471
455
462
448
438
456
476
479
463
427
424
418
424
425
423
423
410
397
414
438
450
457
451
453
449
428
431
447
460
468
483
471
444
442
472
504
504
474
450
447
445
439
447
453
460
469
501
528
524
496
477
468
486
503
529
528
507
483
476
491
484
463
447
448
474
490
504
535
532
518
499
489
496
507
513
506
495
495
503
499
490
488
481
501
520
520
498
492
508
510
515
495
481
487
494
487
478
479
457
451
491
523
538
536
523
506
477
482
501
503
533
540
514
498
507
490
481
493
494
477
470
465
483
480
498
534
541
497
476
478
502
520
510
517
524
503
499
517
529
543
544
524
481
485
493
503
491
496
524
527
524
531
536
534
514
505
501
466
453
461
487
512
524
547
530
502
492
494
493
502
506
540
542
523
489
484
494
489
506
524
538
549
558
547
530
524
498
492
513
517
523
519
541
563
564
548
522
493
493
520
543
527
516
528
512
525
565
596
598
574
551
524
518
498
499
498
506
510
499
489
472
454
462
487
520
530
518
493
480
498
522
582
674
772
847
890
926
936
912
851
744
604
491
409
342
323
301
286
292
316
339
352
385
403
409
405
414
413
417
417
444
445
447
461
484
480
454
430
444
471
479
472
473
474
462
467
463
471
482
506
520
516
500
496
492
482
478
493
507
516
508
500
489
509
540
561
557
551
531
533
535
545
539
524
527
530
538
549
560
603
576
558
559
586
616
636
648
654
631
608
589
601
613
616
620
629
637
637
607
572
541
541
526
515
519
507
491
506
522
517
488
460
441
434
415
414
422
434
442
445
428
403
396
410
401
421
412
402
387
391
397
418
405
357
328
333
398
440
448
428
417
422
402
370
367
393
435
458
460
449
448
446
442
439
441
434
426
440
471
507
505
450
417
418
455
471
462
442
451
472
487
474
472
468
498
493
470
467
479
465
455
465
461
434
435
481
484
485
473
475
500
520
482
460
456
461
476
490
498
493
481
469
461
480
513
506
500
489
483
501
489
482
482
473
466
472
480
477
474
480
496
502
489
481
496
504
515
501
489
488
475
482
487
483
482
487
499
483
451
443
444
457
476
497
506
491
469
467
461
450
468
492
493
483
484
487
503
499
499
526
539
520
486
456
441
463
476
462
470
466
466
458
485
517
503
464
470
479
482
487
496
502
499
484
483
480
478
474
484
507
529
538
529
504
485
484
510
529
546
551
517
485
475
482
499
519
503
489
489
480
473
466
467
472
477
484
476
456
440
467
527
585
661
754
838
917
931
914
877
803
713
616
524
426
329
299
290
291
324
348
375
366
370
384
393
400
420
423
416
437
468
480
468
464
482
492
495
484
470
470
462
454
478
496
499
499
501
515
496
464
465
470
479
516
531
514
513
517
504
545
571
557
522
502
507
519
529
547
554
537
540
553
543
585
615
592
569
560
560
575
601
615
617
625
634
643
632
622
632
654
654
630
606
604
615
616
619
628
636
599
568
549
539
543
526
531
535
534
531
512
495
486
490
484
494
479
450
432
420
429
435
454
455
431
397
395
420
431
405
381
404
425
429
416
414
442
451
438
427
432
447
437
463
463
435
458
475
465
449
440
450
480
481
481
489
494
490
468
478
469
467
489
513
522
507
486
485
479
469
489
525
506
496
505
509
509
488
501
514
489
471
482
484
487
481
488
496
511
508
478
498
503
475
463
493
510
524
555
550
524
518
515
519
508
496
499
498
492
511
527
523
523
504
506
514
520
518
506
525
553
556
544
539
541
528
517
527
532
513
491
513
518
510
507
487
484
504
531
528
520
526
562
623
682
751
853
926
962
969
897
799
689
570
447
375
357
343
343
354
374
404
408
391
413
448
473
470
465
462
447
449
448
461
462
457
458
474
498
511
513
507
518
527
540
537
504
486
481
496
486
489
503
530
522
494
500
519
511
527
554
561
538
561
595
597
584
581
557
542
547
551
548
561
560
564
594
586
564
575
601
607
613
640
667
686
663
616
598
614
631
639
631
605
591
607
626
640
622
594
574
565
549
524
518
528
524
507
480
481
490
492
488
479
478
480
467
470
460
463
452
448
432
413
402
417
459
461
440
407
402
402
415
468
476
471
468
482
468
446
428
440
445
440
437
472
508
506
506
494
471
473
469
471
467
484
471
472
494
493
457
435
442
466
497
517
531
548
523
507
515
517
517
536
526
496
484
487
509
522
503
494
488
479
488
531
546
530
518
507
483
488
500
481
471
483
504
517
528
528
531
532
518
526
534
531
551
598
603
555
512
488
474
495
519
527
517
516
519
518
528
518
508
516
507
489
480
477
509
539
544
546
521
488
470
477
511
579
667
779
876
946
958
941
886
803
709
585
487
416
384
385
389
399
398
399
409
387
370
402
439
427
445
459
484
478
462
476
487
480
450
449
456
458
479
492
481
478
477
476
476
467
468
494
523
512
487
483
505
515
505
503
535
546
518
502
504
501
527
564
570
554
532
526
542
556
548
541
539
532
532
550
584
583
579
592
625
666
673
640
619
626
650
624
606
600
605
600
602
605
605
593
576
577
571
571
580
576
572
559
532
493
467
465
482
488
503
497
496
469
431
403
410
441
458
421
388
416
444
443
425
429
459
474
474
457
452
447
435
440
447
442
448
451
450
441
442
434
460
494
505
499
485
482
490
506
467
441
442
440
465
505
518
503
492
503
510
504
504
481
472
488
497
484
481
494
486
490
483
491
520
544
528
542
550
533
504
509
516
523
508
484
495
505
491
476
482
488
508
513
487
475
495
496
485
482
486
494
466
487
533
536
534
545
544
541
532
527
544
544
512
468
457
475
497
502
502
500
508
511
520
491
475
462
461
459
477
498
512
539
565
565
550
535
527
516
496
504
541
563
580
579
562
566
559
560
547
522
531
547
566
555
524
511
524
564
562
509
474
464
478
486
507
495
472
474
484
507
540
549
569
643
732
785
848
925
951
959
937
866
771
659
570
474
405
371
336
329
337
355
347
358
395
413
423
436
453
474
485
465
443
449
461
469
478
488
479
456
453
467
468
458
458
467
469
475
476
474
485
484
486
486
472
482
482
477
481
487
517
536
536
533
548
543
528
524
541
555
553
539
534
546
551
569
592
611
593
576
577
589
586
584
578
575
589
596
583
592
607
599
603
609
618
627
639
637
611
601
576
531
525
543
555
543
542
542
550
526
519
518
508
480
469
474
464
455
438
419
409
406
399
396
399
406
420
444
470
489
483
468
459
454
426
416
421
418
421
413
423
422
449
484
486
452
415
421
427
441
461
456
447
467
484
469
462
475
492
496
503
496
479
465
466
497
538
535
515
476
459
467
469
455
474
467
475
466
454
487
505
513
520
527
531
517
497
515
547
533
479
452
450
444
471
514
538
524
489
472
482
480
499
517
505
481
482
501
533
531
505
489
465
464
481
498
504
509
502
526
544
543
526
510
512
529
547
534
522
527
517
530
549
533
523
528
525
539
540
525
491
484
482
477
488
523
509
499
513
527
537
526
526
558
623
705
780
846
891
919
941
906
797
672
555
459
400
366
347
334
312
328
368
392
413
428
453
484
493
472
455
431
432
459
468
472
470
464
475
494
508
514
516
509
495
466
476
480
473
471
494
517
516
501
507
511
512
514
517
507
523
527
510
506
511
518
545
571
583
565
527
503
520
566
595
592
598
589
600
602
604
595
613
612
605
605
611
611
599
611
623
601
606
613
611
618
629
609
586
584
583
570
553
541
540
543
554
541
509
488
459
480
500
486
463
457
443
448
458
447
435
425
435
457
458
425
398
378
369
392
424
422
408
411
421
421
417
416
421
425
449
472
480
473
448
428
429
425
436
457
457
462
460
440
433
452
470
447
441
439
437
440
459
488
491
483
492
498
528
538
526
494
469
457
468
477
474
475
472
475
495
495
478
447
461
494
508
510
491
466
449
446
459
469
462
482
510
536
533
516
496
462
442
439
474
508
529
511
472
459
461
468
466
492
531
559
531
492
480
479
489
515
519
532
537
540
539
557
561
534
489
464
483
496
500
516
508
497
478
471
487
486
503
506
501
509
520
491
482
481
482
482
507
544
572
606
656
728
805
888
947
943
909
824
709
605
522
437
375
360
307
276
295
339
365
377
394
412
441
457
452
444
457
460
458
427
409
428
472
497
485
496
482
480
473
476
480
474
469
481
508
489
482
485
508
514
527
546
521
493
499
508
526
523
498
485
503
526
540
534
547
581
591
594
586
582
579
567
556
572
579
586
601
607
611
618
609
611
614
614
619
630
625
611
617
645
657
637
619
612
611
594
581
583
586
579
566
560
561
571
533
519
518
496
494
506
495
462
467
499
498
462
432
434
462
465
443
415
423
427
419
439
463
483
481
488
490
483
475
468
446
441
455
461
482
504
499
468
458
482
476
501
537
530
497
476
460
467
504
514
516
503
498
504
497
501
521
500
490
528
551
536
499
474
485
521
547
555
552
544
527
518
536
536
522
512
516
521
517
528
541
542
512
508
540
543
516
485
487
499
494
506
511
490
476
496
509
512
526
539
537
511
504
516
519
508
502
506
519
523
513
502
497
483
490
519
554
571
538
539
566
584
560
538
530
550
546
538
532
518
547
562
545
539
538
512
490
477
482
506
512
504
493
493
505
504
499
513
524
544
604
696
809
893
950
975
946
903
823
728
617
501
406
356
324
300
309
343
378
393
401
407
415
436
459
482
495
481
441
434
433
432
441
449
449
472
502
514
501
481
491
488
475
465
476
492
490
480
490
510
507
487
485
497
518
538
539
522
494
492
500
494
498
518
525
528
549
551
538
549
563
566
567
577
578
563
569
579
583
591
615
608
611
627
625
625
628
643
650
631
613
595
576
575
568
544
533
561
563
555
551
564
575
554
521
491
471
458
461
466
468
480
477
472
468
471
454
418
419
420
393
408
423
432
419
395
408
430
441
438
397
396
415
428
415
400
419
463
483
470
467
475
469
429
424
445
457
479
484
470
441
433
428
418
432
450
456
456
467
487
509
501
488
498
514
509
475
461
489
484
469
473
475
489
470
461
472
470
497
512
512
503
482
462
458
451
446
454
461
475
490
500
500
481
479
497
488
476
486
495
504
504
490
469
456
472
483
481
496
496
485
476
472
454
434
469
514
520
496
479
482
499
504
514
529
521
499
500
520
530
523
511
510
501
502
513
507
477
471
486
492
473
469
471
482
484
464
453
450
451
471
492
514
542
571
631
729
811
875
935
940
891
810
699
583
487
405
366
350
332
348
347
365
386
390
372
381
413
442
443
430
434
430
405
402
414
413
424
434
422
433
462
469
468
461
452
451
476
487
473
486
497
488
472
462
466
463
454
459
453
455
480
495
509
506
501
507
515
518
521
519
516
534
552
576
570
559
546
529
532
549
563
568
581
594
625
608
568
556
565
571
567
575
587
580
582
594
588
596
577
585
595
608
613
585
551
536
535
522
506
484
444
442
462
473
452
442
445
423
433
454
454
423
391
389
408
424
444
463
451
428
443
480
476
428
420
429
441
448
466
494
495
473
445
423
428
440
442
449
464
470
440
445
481
512
516
521
529
510
515
512
494
498
495
484
495
510
504
496
495
507
502
504
492
491
489
501
536
520
506
506
512
521
520
539
525
523
543
564
544
537
527
513
494
484
475
462
484
506
525
536
541
514
519
507
501
508
518
517
501
515
532
538
517
496
504
510
511
532
576
574
530
485
504
524
512
516
521
532
535
573
602
601
581
542
498
495
535
572
581
572
574
570
570
565
562
572
573
563
544
523
524
530
525
516
513
509
523
547
538
517
531
541
532
524
522
570
644
719
804
866
944
1017
1020
971
901
801
660
547
458
426
418
393
384
395
416
428
430
432
436
443
449
432
441
451
467
487
487
465
457
490
518
496
461
467
483
489
505
508
521
551
555
524
510
524
540
552
538
525
526
522
517
537
559
557
532
525
533
526
536
541
539
546
534
524
552
587
605
609
622
597
591
627
635
633
622
602
599
615
624
634
621
624
628
632
634
641
614
583
579
579
591
601
595
599
605
591
582
551
542
552
547
528
518
522
507
481
474
489
485
472
443
427
442
459
444
442
442
434
436
439
440
427
422
431
457
476
500
493
438
415
434
431
440
430
430
448
463
484
479
456
441
429
441
468
477
455
461
490
506
501
489
498
503
489
473
462
441
439
469
489
490
508
524
508
489
472
467
475
480
494
495
487
498
507
514
523
496
464
448
467
501
518
499
488
506
521
516
485
457
489
494
446
437
451
461
470
460
442
457
493
520
524
505
494
506
510
495
461
452
444
449
497
524
519
487
470
470
482
506
523
515
500
481
474
489
498
503
505
519
530
518
503
503
512
517
531
528
517
504
486
498
546
554
518
493
476
462
456
441
430
454
492
507
506
520
521
524
551
612
670
752
822
895
940
944
881
805
732
616
485
384
332
310
305
301
294
304
333
358
391
416
429
454
445
440
437
433
430
427
416
409
419
427
448
481
478
473
475
476
477
446
423
421
413
431
465
491
492
480
480
494
504
513
521
507
504
516
522
519
467
442
468
502
523
523
533
525
529
533
546
554
557
556
534
539
555
553
553
583
602
602
588
590
612
619
581
577
599
589
561
542
552
556
536
557
589
592
584
572
542
516
502
494
486
477
463
477
474
463
441
429
433
425
404
409
446
457
429
410
407
428
427
405
407
411
405
412
418
401
382
374
405
448
452
448
444
435
419
404
410
435
451
443
453
440
432
414
407
441
479
477
459
454
459
437
428
425
428
435
434
457
467
446
436
468
483
482
482
472
466
483
496
498
508
525
513
487
466
460
476
474
444
456
488
508
491
482
468
450
447
464
476
494
488
482
493
474
456
460
472
495
495
465
455
444
467
491
503
510
519
507
503
507
505
500
488
482
475
497
515
527
528
520
536
542
534
522
547
567
542
523
515
512
515
514
528
505
488
493
485
466
474
483
469
490
518
547
511
474
466
479
482
491
495
540
604
668
755
833
912
971
987
944
843
734
608
482
386
322
303
316
342
364
352
336
353
391
420
424
424
433
448
460
445
424
423
451
456
463
488
489
487
484
474
488
501
495
497
477
457
456
468
483
492
514
518
501
508
512
520
530
547
531
514
508
515
509
509
531
537
532
522
533
558
554
558
570
593
603
609
610
604
586
594
609
598
569
599
618
635
641
626
611
602
598
605
619
628
628
624
604
581
558
542
559
564
556
548
539
526
508
510
519
496
489
477
469
467
463
456
459
448
437
434
453
456
448
451
436
419
425
424
420
429
431
438
452
475
479
488
457
418
411
411
429
468
494
471
434
438
483
510
515
502
480
450
441
451
458
466
483
493
469
467
477
472
467
493
510
531
529
508
479
464
455
476
492
493
503
525
536
519
490
477
473
485
516
524
540
548
524
510
500
501
494
489
483
495
501
481
466
489
509
481
482
514
551
566
538
514
510
502
492
484
493
488
491
524
508
477
493
510
497
466
468
512
554
559
549
525
507
495
505
516
521
543
552
572
568
579
582
556
529
521
526
506
519
546
550
528
513
508
516
528
544
545
523
506
518
521
514
492
497
532
530
512
507
516
542
572
635
744
846
910
934
944
918
885
837
732
603
466
372
348
343
349
355
368
382
395
400
409
428
446
425
414
436
452
454
447
468
486
508
509
475
446
449
471
467
467
484
488
489
488
480
458
451
459
481
492
494
505
503
494
482
488
489
487
520
541
531
557
581
593
593
586
563
540
528
517
503
490
496
539
573
584
583
597
610
618
622
620
621
600
586
590
616
614
603
614
616
610
593
585
600
606
603
608
598
565
556
542
521
528
533
520
522
512
491
478
461
436
427
439
455
468
490
490
471
447
442
447
432
410
431
459
454
439
433
431
420
406
417
441
453
449
473
500
481
456
435
456
470
467
452
453
463
472
483
483
489
509
517
506
498
496
502
505
511
522
486
452
470
487
483
486
498
475
449
462
491
501
488
506
507
501
518
532
520
534
521
503
483
493
503
509
511
490
468
476
489
491
478
468
487
510
535
527
542
566
545
513
501
479
464
460
470
489
492
491
488
499
504
491
475
474
496
515
519
549
574
556
528
525
530
534
538
534
528
523
545
574
559
552
540
548
564
561
548
542
521
510
505
505
520
530
522
503
489
494
515
533
539
535
531
527
540
524
530
567
602
661
722
779
828
881
930
919
883
813
710
581
493
417
377
387
392
371
368
392
414
459
494
484
449
429
434
436
446
440
437
449
467
453
451
442
446
460
466
494
505
499
488
460
453
478
513
519
506
505
497
508
520
528
532
522
502
503
514
492
494
519
509
512
544
564
556
557
566
534
518
540
565
558
552
579
581
572
584
600
629
642
624
597
599
626
633
626
621
590
580
556
528
557
588
600
590
586
574
562
541
529
554
552
550
534
517
521
504
482
479
482
481
484
489
498
446
387
394
428
465
467
454
457
449
437
446
451
488
503
488
462
421
410
421
446
444
434
439
452
439
436
437
457
470
476
468
462
470
493
510
504
495
508
526
536
525
484
468
457
477
493
514
523
505
484
467
461
481
498
481
490
506
502
489
512
537
527
486
482
506
530
523
520
540
527
500
491
494
505
499
492
502
513
494
465
440
440
465
486
490
516
524
535
547
560
531
493
490
505
513
521
532
537
528
490
457
439
456
477
503
529
544
542
520
489
479
507
546
558
555
545
518
532
555
548
536
539
540
545
556
556
568
571
542
507
478
476
497
522
519
540
540
507
484
471
474
495
500
510
509
504
507
512
546
607
665
736
857
951
977
966
907
845
805
704
569
456
387
352
328
335
356
378
400
399
405
408
424
434
433
447
460
472
483
477
449
431
416
416
439
458
474
481
494
481
473
483
501
519
504
477
475
471
452
471
485
513
544
552
528
497
489
498
521
526
531
543
544
538
531
534
560
563
568
562
549
532
522
559
569
565
561
559
597
629
640
621
612
630
655
679
673
648
605
581
588
590
586
589
570
542
548
567
593
580
545
530
524
501
508
516
521
505
503
491
461
467
480
479
452
442
448
449
417
388
397
415
414
402
408
444
472
476
471
459
463
474
450
423
405
400
421
428
419
436
440
453
455
463
480
489
488
488
481
490
487
466
452
458
485
506
498
475
470
465
473
495
523
528
533
527
513
499
467
448
472
504
517
515
513
488
476
472
479
504
532
533
492
468
474
492
477
473
480
490
494
482
490
475
464
476
488
506
512
510
514
522
516
511
515
498
481
491
507
507
499
482
481
509
500
489
505
526
546
509
462
473
492
511
519
521
533
538
544
557
557
545
540
516
508
508
522
520
515
507
495
492
497
494
495
493
504
508
529
502
494
502
510
511
495
508
575
645
720
807
911
953
967
925
832
738
638
543
453
371
323
302
306
326
361
370
390
420
433
426
431
433
439
447
447
463
460
438
439
442
453
483
509
497
478
472
473
460
460
493
508
502
499
486
503
527
506
483
484
526
519
506
495
503
516
537
541
544
545
528
517
520
528
525
539
560
582
588
591
566
536
542
561
563
580
622
654
658
641
585
562
560
566
585
608
625
631
629
647
656
638
595
586
556
537
543
571
580
577
545
549
524
495
497
498
485
481
478
466
469
463
452
435
413
429
430
411
382
385
412
418
425
426
396
399
407
434
455
450
435
425
423
439
455
466
438
424
447
470
450
423
412
396
406
430
462
495
470
431
441
478
485
490
491
470
471
479
470
472
474
487
496
485
472
477
491
491
481
474
466
472
480
485
496
498
496
482
462
450
470
493
504
528
522
489
454
447
471
477
497
509
504
504
502
527
543
532
533
540
520
497
492
499
484
481
515
529
503
485
497
499
517
504
486
481
476
466
466
466
463
497
540
558
575
613
679
769
855
912
923
882
791
694
592
507
424
363
346
331
311
303
345
389
415
427
448
447
446
458
462
444
445
437
415
403
422
442
462
474
468
475
479
479
484
502
493
488
489
503
499
502
505
506
495
487
486
495
509
517
507
508
506
500
514
526
517
515
506
522
543
555
551
554
562
577
586
592
587
578
563
556
567
601
641
654
653
652
625
597
590
582
583
584
562
545
549
590
602
602
615
594
566
537
519
518
527
556
568
550
517
471
457
463
477
490
494
494
460
422
409
405
402
400
398
397
402
425
446
471
468
449
444
446
422
403
410
441
437
448
475
480
467
496
506
481
451
459
480
472
477
485
479
472
477
484
499
475
436
434
445
454
461
473
506
508
523
526
516
503
493
505
506
451
452
481
515
537
547
527
501
507
515
524
510
490
482
489
494
483
466
466
482
495
499
519
530
535
514
495
498
518
506
497
489
495
486
488
468
460
458
472
515
534
535
525
501
519
568
553
534
506
487
472
445
456
490
509
523
530
549
559
529
485
446
465
486
492
512
530
539
549
541
543
527
490
468
478
500
497
500
512
528
572
573
572
557
537
545
578
583
578
547
539
532
529
525
542
534
494
496
514
533
525
504
507
516
497
487
484
474
473
488
511
551
593
667
760
846
925
978
983
943
891
795
668
543
439
350
309
318
342
359
377
398
414
423
431
430
447
435
414
424
463
477
451
449
458
455
477
492
489
468
437
426
441
481
508
492
453
436
440
467
477
495
515
546
534
511
517
528
528
514
507
533
562
552
541
536
541
563
571
549
538
551
531
495
514
525
544
554
554
567
589
608
621
629
635
633
634
624
586
586
596
588
594
611
629
638
627
630
637
590
569
541
537
539
525
520
524
525
546
534
514
488
481
490
504
511
504
489
482
468
451
446
448
463
455
433
428
429
418
429
445
435
429
435
458
474
490
459
424
443
492
520
495
445
423
436
443
435
446
466
475
470
473
480
476
491
505
518
526
521
499
502
524
509
484
459
446
448
478
502
504
497
511
509
514
513
504
470
450
467
472
469
488
508
505
507
499
502
500
484
502
538
538
533
517
515
509
473
479
496
494
484
468
461
490
502
506
517
499
482
473
496
504
505
514
537
545
537
509
478
472
499
504
508
539
546
529
541
567
565
544
550
535
537
518
516
516
500
498
522
522
523
514
495
491
504
524
521
509
501
493
491
528
534
512
490
505
541
586
639
691
798
900
952
952
932
887
810
685
557
455
394
368
350
330
340
381
410
416
425
453
478
466
447
443
439
431
419
425
431
437
479
494
462
449
464
484
472
479
462
445
460
485
468
476
494
527
541
524
520
520
509
526
533
529
527
512
506
536
550
550
555
555
553
563
552
538
524
504
544
569
558
553
559
578
582
588
587
581
608
604
605
608
597
591
602
613
616
614
614
625
637
650
625
585
565
544
539
545
530
515
510
511
494
476
507
503
488
482
474
468
456
458
466
450
429
438
467
474
447
430
432
428
421
442
444
434
405
412
457
463
438
451
455
446
477
470
452
456
446
443
433
415
436
476
493
505
503
487
488
496
462
451
461
480
502
523
521
509
482
465
455
446
461
502
511
499
491
470
470
473
457
466
484
512
525
516
523
514
484
462
470
482
477
488
519
534
511
495
495
494
494
491
477
467
507
547
543
526
531
547
564
557
535
523
538
521
496
478
486
505
505
504
507
528
517
506
500
490
496
482
491
501
505
505
492
496
551
621
693
776
873
928
952
954
894
780
668
581
522
432
351
301
301
320
347
386
430
468
452
421
418
424
456
467
455
455
458
470
494
492
456
424
426
433
431
447
479
505
524
525
500
499
502
504
508
507
518
492
504
525
531
546
553
558
556
534
516
502
509
516
528
540
557
561
541
547
574
567
563
565
570
574
601
614
626
612
598
605
626
628
619
609
617
635
628
596
584
574
573
601
615
617
608
597
601
604
579
539
514
506
499
501
492
482
477
460
455
458
476
472
445
434
412
407
442
431
426
439
447
436
425
414
419
428
432
438
417
398
388
429
453
446
435
427
445
447
450
480
484
484
496
484
477
495
494
476
449
432
